#   1 KRON_RADIUS            Kron apertures in units of A or B                         
#   2 MAGERR_APER            RMS error vector for fixed aperture mag.                   [mag]
#   3 Y_IMAGE                Object position along y                                    [pixel]
#   4 X_IMAGE                Object position along x                                    [pixel]
#   5 FLUX_APER              Flux vector within fixed circular aperture(s)              [count]
#   6 THRESHOLD              Detection threshold above background                       [count]
#   7 THETA_IMAGE            Position angle (CCW/x)                                     [deg]
#   8 A_IMAGE                Profile RMS along major axis                               [pixel]
#   9 B_IMAGE                Profile RMS along minor axis                               [pixel]
#  10 FLUX_RADIUS            Fraction-of-light radii                                    [pixel]
#  11 FLUXERR_APER           RMS error vector for aperture flux(es)                     [count]
#  12 MAG_APER               Fixed aperture magnitude vector                            [mag]
#  13 NUMBER                 Running object number                                     
 4.23   0.0010     53.2652     63.6543     121668.4      43.5214   3.17     5.181     4.630      4.359     113.6692  15.3371          1
 3.95   0.0061     16.5149    985.0804     20285.74      43.5214 -88.61     4.203     1.941      3.702     113.6306  17.2820          2
 4.06   0.0072     18.0504     91.3141     17225.72      43.5214   0.42     1.768     1.716      2.409     113.6563  17.4596          3
 3.50   0.0028     14.6167   1445.7477     43793.96      43.5214 -47.82     1.890     1.819      2.384     113.7464  16.4465          4
 8.12   0.1837     10.2946   1183.6542     671.8833      43.5214  42.42     0.565     0.339      2.311     113.6306  20.9818          5
 7.36   0.0532      4.2259    145.0241     2080.868      43.5214  89.83     0.957     0.768      2.839     101.8729  19.7544          6
 6.64   0.0576     17.2495    384.5071     2140.319      43.5214  19.99     0.993     0.952      2.788     113.6177  19.7238          7
 5.14   0.0312     24.7971    367.2085     3957.877      43.5214  13.81     1.305     1.234      2.438     113.6692  19.0563          8
 3.50   0.0006     59.7850   1078.4766     197673.9      43.5214  77.02     2.287     2.159      2.560     113.7849  14.8101          9
 8.57   0.0573     23.7800    383.3999     2154.946      43.5214 -71.85     0.755     0.452      2.443     113.7078  19.7164         10
 6.41   0.0512     33.9023   1110.1802     2409.142      43.5214  68.24     1.657     0.778      2.805     113.6563  19.5953         11
 7.88   0.0815     33.3076    326.9492     1513.443      43.5214  -6.92     0.747     0.677      2.412     113.6434  20.1001         12
 5.98   0.1173     37.8655   1521.1591     1052.368      43.5214  46.72     0.834     0.669      2.502     113.7078  20.4946         13
 7.05   0.0927     38.8750   1170.6508     1331.396      43.5214 -19.52     0.923     0.691      2.419     113.6306  20.2392         14
 5.87   0.0924     42.4605    915.4996     1335.507      43.5214 -77.10     0.913     0.907      2.349     113.6177  20.2359         15
 3.50   0.0006     80.1536    537.6561     192567.3      43.5214 -59.56     2.145     2.122      2.281     113.6949  14.8385         16
 9.02   0.0715     44.6655    440.6699     1725.452      43.5214 -45.19     0.576     0.334      1.934     113.6434  19.9577         17
 4.26   0.0170     75.2162    128.0142     7246.473      43.5214  -5.75     1.516     1.469      2.663     113.7078  18.3997         18
 6.64   0.0603     82.2787    421.5101     2047.431      43.5214 -15.66     0.994     0.986      2.678     113.6177  19.7720         19
 3.50   0.0004    121.8120    789.2006     282366.1      43.5214 -62.81     2.230     2.179      2.405     113.7078  14.4230         20
 6.02   0.0316     90.7295    376.9918     3908.832      43.5214   4.47     1.628     1.442      3.345     113.7592  19.0699         21
 4.42   0.0116     96.6151     56.2576     10672.09      43.5214 -38.95     1.639     1.566      2.440     113.7206  17.9794         22
 6.10   0.0477     98.0585    452.9797     2591.516      43.5214 -14.82     1.454     1.005      2.716     113.7464  19.5161         23
 7.39   0.0872     91.4945    495.9650      1415.17      43.5214  -1.40     0.788     0.500      2.262     113.6306  20.1730         24
 3.50   0.0008    162.2989   1468.3301     160250.7      43.5214 -48.48     2.111     2.074      2.401     113.6434  15.0380         25
 6.85   0.1085    131.2865    418.0175     1138.289      43.5214   5.64     0.729     0.681      2.402     113.6949  20.4094         26
 3.55   0.0034    170.2996    877.3505     36317.85      43.5214  -8.96     1.882     1.865      2.275     113.5533  16.6497         27
 8.52   0.1261    151.4999   1280.4825     978.1085      43.5214 -47.88     0.501     0.498      2.176     113.5662  20.5740         28
 5.51   0.0365    164.9741   1445.6677      3385.85      43.5214  17.35     1.303     1.186      2.513     113.7206  19.2258         29
 4.82   0.0502    166.8505    104.4303     2462.553      43.5214 -46.35     1.196     1.124      2.277     113.7464  19.5715         30
 6.42   0.0841    169.3397   1368.8977     1467.417      43.5214  68.06     0.910     0.689      2.322     113.6177  20.1336         31
 7.68   0.0655    180.3316    574.9897     1885.286      43.5214  53.18     1.039     0.643      2.520     113.7721  19.8616         32
 7.49   0.0466    186.6387   1354.8976     2645.346      43.5214  75.59     1.045     0.753      3.426     113.6048  19.4938         33
 5.30   0.0293    192.6023   1350.5554     4214.657      43.5214 -19.15     1.368     1.305      2.545     113.7721  18.9881         34
 4.77   0.0080    210.7202    827.6749     15458.37      43.5214  -5.78     3.810     2.091      3.808     113.6563  17.5771         35
 4.14   0.0160    206.7225    549.0807      7727.34      43.5214   3.37     1.545     1.484      2.412     113.6692  18.3299         36
 4.19   0.0159    212.1664   1306.1005     7738.256      43.5214 -64.54     1.516     1.487      2.480      113.579  18.3284         37
 5.52   0.0095    230.1494    562.2775     13046.49      43.5214 -37.31     3.231     3.004      5.082     113.6306  17.7613         38
 5.76   0.0506    210.8939    684.8484     2437.685      43.5214 -66.39     1.218     1.115      2.556     113.6177  19.5826         39
 3.50   0.0003    259.7588    997.4791     484020.6      43.5214 -48.81     2.331     2.263      2.442      113.682  13.8378         40
 3.92   0.0142    223.9121   1226.0618     8713.727      43.5214  25.89     1.523     1.479      2.607     113.6434  18.1995         41
 4.86   0.0401    222.6267    774.9695     3076.641      43.5214  81.57     1.224     1.191      2.321     113.7206  19.3298         42
 3.50   0.0003    265.9002     67.6173     361665.3      43.5214 -49.31     2.268     2.237      2.495     113.6563  14.1542         43
 5.52   0.0202    243.9732    112.8913     6115.879      43.5214 -88.19     1.951     1.539      3.459     113.6692  18.5839         44
 4.81   0.0085    255.4885    613.0098     14612.05      43.5214 -41.01     2.436     2.028      3.097     113.7078  17.6382         45
 6.52   0.0483    239.3535    838.8231     2559.371      43.5214  -5.84     1.203     1.102      2.775     113.7335  19.5297         46
 7.18   0.0476    250.5180    107.4840     2590.789      43.5214 -42.78     1.108     0.852      2.847     113.6306  19.5164         47
 3.50   0.0014    287.5196   1486.4733     85517.48      43.5214 -43.97     2.033     1.992      2.475     113.6434  15.7199         48
 3.66   0.0065    281.9236   1522.4003     18922.32      43.5214   3.77     1.701     1.668      2.361     113.7206  17.3576         49
 6.46   0.0626    270.7727   1273.6278      1971.68      43.5214  16.49     1.000     0.849      2.550     113.7335  19.8129         50
 3.50   0.0020    303.1506    201.7659     62947.28      43.5214 -78.11     1.968     1.942      2.417     113.7206  16.0526         51
 6.27   0.0355    293.2967   1475.8354     3470.096      43.5214 -33.66     1.250     1.086      2.437     113.5919  19.1991         52
 4.64   0.0333    302.2875    563.6751     3706.337      43.5214  31.81     1.325     1.283      2.373     113.6177  19.1276         53
 3.50   0.0030    322.0853    697.3419     41555.55      43.5214   1.78     1.882     1.848      2.329     113.6563  16.5034         54
 7.64   0.0507    308.7069     85.2985     2433.919      43.5214  45.78     0.969     0.767      3.138     113.6048  19.5842         55
 6.05   0.0327    321.9905    641.4783     3780.069      43.5214 -64.00     1.799     1.232      3.243     113.7335  19.1063         56
 5.16   0.0151    327.5369    595.4523     8201.604      43.5214 -52.10     1.728     1.694      2.867     113.6692  18.2653         57
 6.07   0.0814    329.2517   1546.0168     1518.155      43.5214 -87.78     0.913     0.756      2.367     113.7464  20.0967         58
 5.83   0.0585    332.2679     93.4347     2109.993      43.5214  20.40     0.992     0.948      2.456     113.7206  19.7393         59
 4.78   0.0296    350.1319     54.7084     4162.664      43.5214  -8.51     1.366     1.298      2.432     113.6306  19.0016         60
 3.50   0.0029    368.1670    761.1217     43188.04      43.5214 -26.12     1.940     1.871      2.458     113.6949  16.4616         61
 4.02   0.0160    361.1491   1500.4037     7740.293      43.5214 -15.08     1.586     1.464      2.502     113.7849  18.3281         62
 3.50   0.0006    395.2009    231.4691     210342.9      43.5214 -63.05     2.184     2.143      2.436     113.7592  14.7427         63
 5.78   0.0609    360.5269   1034.0070     2029.203      43.5214  -1.40     1.111     0.957      2.450     113.7592  19.7817         64
 6.91   0.0481    375.4792    754.0627      2564.61      43.5214  56.22     1.715     0.961      2.866     113.6306  19.5274         65
 7.68   0.0773    370.3091     71.9499     1597.035      43.5214 -10.89     0.743     0.672      2.494     113.6692  20.0417         66
 6.47   0.0637    373.4826   1083.8826     1935.842      43.5214 -17.84     1.100     0.990      2.692     113.6306  19.8328         67
 6.41   0.0667    380.6161      1.4882     1415.115      43.5214 -89.79     1.601     0.500      2.633     86.88364  20.1730         68
 3.50   0.0041    397.0519   1461.2017     30182.68      43.5214 -44.85     1.804     1.797      2.450     113.7849  16.8506         69
 3.50   0.0036    398.1799    354.6261     34328.65      43.5214 -13.53     1.890     1.844      2.394     113.7078  16.7109         70
 8.09   0.1561    375.6552     87.2937     790.4585      43.5214  47.61     0.564     0.339      1.890     113.6434  20.8053         71
 6.71   0.0861    380.1594    125.8447      1435.09      43.5214  44.65     0.818     0.680      2.380     113.7335  20.1578         72
 4.22   0.0170    393.8183   1088.7736     7250.202      43.5214 -35.06     1.516     1.449      2.359     113.7206  18.3991         73
 8.89   0.1023    382.4900     67.5055     1205.526      43.5214 -44.69     0.503     0.497      2.079     113.5919  20.3471         74
 8.07   0.1575    388.6902   1195.3347     783.8548      43.5214  43.77     0.567     0.338      2.349     113.6692  20.8144         75
 6.14   0.0493    412.0432      1.7727     1952.961      43.5214  90.00     2.505     0.701      3.492     88.69999  19.8233         76
 7.90   0.0414    396.8768    626.5975     2985.754      43.5214 -73.71     1.239     0.985      3.434     113.7206  19.3624         77
 8.16   0.0606    403.6928    526.4366     2037.771      43.5214  81.17     1.023     0.476      2.729     113.6434  19.7771         78
 7.54   0.1327    407.0518    282.4902     930.5001      43.5214 -88.59     0.787     0.500      2.271     113.6692  20.6282         79
 3.50   0.0018    437.9478    252.1072      68501.9      43.5214 -87.21     2.006     1.974      2.453     113.6434  15.9607         80
 3.50   0.0002    461.0704    807.6703     592479.1      43.5214 -68.51     2.341     2.304      2.569      113.579  13.6183         81
 5.83   0.0299    420.9021    159.0900     4122.205      43.5214  37.62     1.694     1.421      3.039     113.5919  19.0122         82
 7.67   0.1297    419.5386   1580.4929     951.4936      43.5214  40.47     0.504     0.495      2.386     113.6434  20.6040         83
 4.17   0.0222    432.9492   1422.0629     5549.273      43.5214   6.85     1.427     1.396      2.431     113.6692  18.6894         84
 6.72   0.0565    426.5748   1179.2787     2187.455      43.5214  26.35     1.188     0.957      2.835     113.7078  19.7002         85
 6.42   0.0009    426.8329    433.0970     139433.3      43.5214  -3.27     2.183     0.735      4.184     113.6177  15.1891         86
 5.15   0.0507    434.2586    151.1154     2434.283      43.5214 -20.05     1.138     1.034      2.371     113.6563  19.5841         87
 3.88   0.0057    450.3392     21.3603     21738.67      43.5214 -27.47     1.777     1.769      2.475     113.7206  17.2069         88
 5.07   0.0069    467.7993    850.4810      17816.6      43.5214  22.59     7.403     2.054      6.200     113.7206  17.4229         89
 9.05   0.0507    430.6650    719.3185     2431.682      43.5214  45.76     0.572     0.336      2.286     113.6177  19.5852         90
 4.48   0.0509    440.0043    305.8401     2428.662      43.5214  22.45     1.160     1.136      2.259     113.7206  19.5866         91
 5.42   0.0328    445.2589    122.3780     3769.754      43.5214 -23.52     1.401     1.309      2.643     113.7464  19.1092         92
 3.80   0.0050    457.8408     34.5939     24701.09      43.5214 -30.83     1.779     1.767      2.405     113.7335  17.0682         93
 8.05   0.1066    443.6886    655.3237     1157.354      43.5214  44.36     0.563     0.340      2.197     113.6048  20.3913         94
 4.32   0.0159    463.6414    468.6490     7787.465      43.5214  70.99     1.619     1.558      2.493     113.7464  18.3215         95
 6.24   0.1024    452.9206   1533.0249      1206.09      43.5214 -31.03     0.792     0.774      2.437     113.7078  20.3465         96
 5.22   0.0484    460.9918   1096.1410     2555.696      43.5214  47.71     1.191     1.080      2.441     113.7849  19.5312         97
 4.60   0.0188    471.3581    254.2742     6576.427      43.5214 -79.51     1.510     1.439      2.401      113.682  18.5050         98
 4.03   0.0125    472.1380    734.9207      9863.64      43.5214  75.27     1.566     1.511      2.297     113.6306  18.0649         99
 7.71   0.0724    461.8358    724.7247     1706.405      43.5214 -20.12     0.949     0.683      2.631      113.682  19.9698        100
 3.70   0.0099    477.9271    923.0840     12527.96      43.5214 -28.67     1.679     1.612      2.324     113.6306  17.8053        101
 4.34   0.0266    477.2791   1276.4363     4648.226      43.5214 -44.53     1.334     0.920      2.836      113.682  18.8818        102
 5.84   0.0399    488.9431    839.6031     3096.525      43.5214  87.10     2.059     0.959      3.448     113.7849  19.3228        103
 4.14   0.0245    484.0388   1070.6680     5033.713      43.5214 -80.82     1.429     1.400      2.320     113.7078  18.7953        104
 7.10   0.1547    475.9789   1168.4807     798.3174      43.5214  89.68     0.781     0.500      1.973     113.7206  20.7946        105
 5.40   0.0132    496.2654     82.9187     9350.172      43.5214  66.13     2.311     2.046      3.697     113.6177  18.1229        106
 6.87   0.0809    478.8629    682.8434     1525.886      43.5214 -46.10     0.819     0.679      2.523      113.682  20.0912        107
 5.12   0.0145    495.7248   1186.8407     8494.968      43.5214 -15.71     2.996     1.931      3.864      113.682  18.2271        108
 5.26   0.0227    504.0796    762.8668      5444.16      43.5214 -10.71     1.688     1.646      3.145     113.6177  18.7102        109
 4.77   0.0367    502.0138    863.8067     3367.294      43.5214  64.62     1.201     1.192      2.406     113.6434  19.2318        110
 4.57   0.0114    515.3623   1461.0657     10871.75      43.5214  23.93     4.115     1.649      3.671     113.7206  17.9593        111
 6.08   0.0955    498.0054    366.2516     1293.411      43.5214   0.37     0.926     0.749      2.378     113.7849  20.2707        112
 6.08   0.0355    509.9191    164.8152     3479.083      43.5214  -5.95     1.820     1.073      3.120     113.7335  19.1963        113
 4.83   0.0364    513.8598   1179.1876     3394.764      43.5214  24.06     1.285     1.178      2.567     113.7335  19.2230        114
 5.52   0.0531    519.1540    641.9484     2326.623      43.5214  22.36     1.200     1.120      2.502     113.7592  19.6332        115
 6.45   0.1192    518.1915   1519.1722     1036.268      43.5214  45.74     0.761     0.567      2.448     113.7206  20.5113        116
 4.09   0.0172    540.2067    999.9378     7183.347      43.5214  61.15     1.534     1.490      2.432     113.7721  18.4092        117
 6.53   0.0683    536.3547    404.5305     1807.425      43.5214  38.93     1.195     0.786      2.515     113.6692  19.9073        118
 3.90   0.0124    558.9035   1041.7982     9967.934      43.5214   6.20     1.633     1.563      2.394     113.6949  18.0535        119
 4.74   0.0170    571.3472     45.9143     7271.796      43.5214  46.17     2.084     1.522      2.829     113.6434  18.3959        120
 5.98   0.1417    555.8228    778.8107     871.6674      43.5214  44.57     0.756     0.567      2.342     113.6949  20.6991        121
 3.50   0.0030    580.7163    144.9663     40799.74      43.5214  83.47     1.885     1.868      2.429     113.7078  16.5234        122
 4.85   0.0194    571.3085   1447.7944      6364.69      43.5214  19.43     2.258     1.637      3.187     113.6563  18.5406        123
 5.88   0.0668    565.0881    139.5546     1848.721      43.5214 -69.74     1.052     0.977      2.505     113.6563  19.8828        124
 3.50   0.0030    582.1971    319.2584     41074.89      43.5214   7.31     1.887     1.830      2.363     113.7849  16.5161        125
 4.29   0.0064    596.7602    782.6867      19357.2      43.5214 -62.08     3.302     3.182      4.238     113.6949  17.3329        126
 5.97   0.0503    576.2225   1001.8235     2455.404      43.5214  40.80     1.216     1.076      2.771     113.7206  19.5747        127
 4.64   0.0436    584.5398     76.0209     2831.868      43.5214  -0.84     1.205     1.138      2.386     113.7464  19.4198        128
 4.19   0.0273   1001.5298   1555.4829     4523.865      43.5214  54.97     1.346     1.330      2.351     113.6177  18.9112        129
 4.71   0.0350   1597.6036    654.7847     3034.745      43.5214   1.75     1.659     1.434      2.500     97.76935  19.3447        130
 5.16   0.0578   1594.7568    374.1190     2063.841      43.5214  42.74     1.307     1.027      2.438     109.8601  19.7633        131
 4.05   0.0237   1584.9181   1108.9316      5212.14      43.5214 -15.59     1.433     1.357      2.367     113.6434  18.7575        132
 6.78   0.1402   1585.9497   1069.5099     880.2903      43.5214 -88.96     0.783     0.500      2.248     113.6563  20.6884        133
 3.60   0.0085   1541.8564    135.1745     14546.23      43.5214  54.68     1.663     1.623      2.320     113.7335  17.6431        134
 8.74   0.1775   1519.3268     85.3294     694.9143      43.5214 -44.88     0.573     0.336      1.819     113.6048  20.9452        135
 4.79   0.0836   1514.6519    483.6263     1477.859      43.5214 -43.74     1.049     0.951      2.230     113.7464  20.1259        136
 4.90   0.0729    912.4185   1001.2366     1695.417      43.5214  73.44     0.989     0.957      2.181     113.7335  19.9768        137
 3.50   0.0045    900.4997    302.8331     27409.87      43.5214 -64.19     1.794     1.787      2.397     113.5919  16.9552        138
 4.92   0.0207    896.1861    538.5018     5976.984      43.5214   6.05     1.942     1.608      2.832     113.6692  18.6088        139
 5.31   0.0870    893.7880   1426.2821     1420.282      43.5214 -16.60     0.974     0.854      2.403     113.7335  20.1691        140
 3.50   0.0003    880.2065   1592.6320     477223.3      43.5214 -83.52     2.300     2.188      2.514     113.7464  13.8532        141
 6.04   0.0363    888.8303    325.8213      3406.17      43.5214  17.19     1.767     1.100      2.840     113.7078  19.2193        142
 8.02   0.1213    888.6788    681.3232     1018.022      43.5214  44.90     0.568     0.338      2.184     113.6692  20.5306        143
 4.51   0.0346    885.7850   1500.2664     3572.317      43.5214  10.00     1.303     1.227      2.362     113.7592  19.1676        144
 7.04   0.0563    885.0953    339.2578     2190.475      43.5214  -2.69     1.149     0.882      2.763     113.6177  19.6987        145
 4.70   0.0685    877.6797    961.0908     1801.731      43.5214  27.86     1.126     1.034      2.314     113.6434  19.9108        146
 6.46   0.1057    876.3213    541.9203     1167.923      43.5214  -7.28     0.737     0.667      2.176     113.6434  20.3815        147
 4.13   0.0111    869.4717   1103.7170     11151.28      43.5214 -55.22     1.983     1.793      2.689     113.6177  17.9317        148
 4.96   0.0292    867.9886    939.9118     4226.026      43.5214  41.19     1.806     1.355      2.598     113.7078  18.9852        149
 6.15   0.0922    869.3575    643.8528     1339.401      43.5214  68.50     0.904     0.687      2.344     113.7206  20.2327        150
 8.15   0.2891    860.4996   1554.4683     427.0197      43.5214  48.21     0.504     0.495      2.053     113.6563  21.4739        151
 4.53   0.0434    858.5098   1339.6924     2839.727      43.5214 -89.55     1.308     1.113      2.401     113.6048  19.4168        152
 9.07   0.0958    855.5103    545.4817     1287.626      43.5214 -46.32     0.502     0.497      2.471     113.6306  20.2755        153
 4.16   0.0569    844.9837   1063.9657     2171.191      43.5214   1.03     1.169     1.133      2.320     113.7206  19.7083        154
 4.40   0.0268    843.3248   1106.2646     4610.295      43.5214  40.34     1.667     1.341      2.464     113.6177  18.8907        155
 4.56   0.0197    836.6466    298.8450     6272.894      43.5214  11.92     1.467     1.396      2.416     113.7464  18.5563        156
 6.83   0.1628    836.6003   1520.7371     758.8954      43.5214  18.11     0.733     0.456      2.020     113.7849  20.8495        157
 5.73   0.0913    835.6805    819.1954      1353.39      43.5214 -72.93     0.960     0.861      2.226     113.7206  20.2214        158
 3.50   0.0045    822.9877    654.4249     27543.41      43.5214  74.96     1.838     1.773      2.511     113.6949  16.9500        159
 7.91   0.3057    819.4906   1398.4888     403.5884      43.5214  46.70     0.500     0.500      2.422     113.6048  21.5352        160
 3.50   0.0049    803.0379   1378.7590      25058.5      43.5214 -72.46     1.796     1.752      2.451     113.7464  17.0526        161
 3.50   0.0017    798.4418    695.7374     73141.21      43.5214 -88.12     2.639     1.966      3.027     113.6949  15.8896        162
 4.17   0.0102    800.7010     41.1932     12089.75      43.5214 -23.53     1.671     1.577      2.530     113.6692  17.8440        163
 4.28   0.0124    774.2634   1427.3890     9970.735      43.5214  89.63     2.902     1.909      3.580     113.7849  18.0532        164
 7.20   0.0723    768.0129    140.0102     1707.315      43.5214  44.98     0.806     0.795      2.647     113.6692  19.9692        165
 4.24   0.0193    742.8162    556.3451     6395.071      43.5214 -57.68     1.449     1.420      2.474     113.7464  18.5354        166
 4.32   0.0579    738.1102   1158.1116      2131.26      43.5214  47.36     1.221     1.121      2.336     113.5919  19.7284        167
 5.08   0.0496    736.0913    649.8519     2486.057      43.5214 -38.54     1.206     1.123      2.300     113.6563  19.5612        168
 3.50   0.0004    726.6004    848.5243     283585.5      43.5214 -72.04     2.212     2.178      2.422     113.7335  14.4183        169
 3.87   0.0274    727.4650   1178.3309     4499.415      43.5214 -10.14     1.394     1.328      2.314     113.6434  18.9171        170
 5.23   0.0866    721.4345   1395.1035     1425.467      43.5214  16.01     1.086     0.953      2.216     113.6177  20.1651        171
 3.96   0.0219    715.8315    808.4100     5640.069      43.5214  51.69     1.425     1.393      2.476     113.7206  18.6718        172
 3.99   0.0217    708.9626   1163.8940     5697.828      43.5214  20.90     1.464     1.393      2.447     113.6177  18.6607        173
 4.42   0.0184    704.4229   1339.0634     6697.931      43.5214 -25.11     1.700     1.462      2.744     113.7464  18.4851        174
 3.68   0.0118    702.8209    952.5522     10452.82      43.5214  -9.41     1.630     1.577      2.563     113.7335  18.0019        175
 6.02   0.0468    699.1675    582.7174     2638.051      43.5214   5.06     1.844     0.873      2.705     113.6949  19.4968        176
 5.87   0.0323    691.6353   1213.6743     3816.671      43.5214  87.83     1.432     1.241      3.081      113.682  19.0958        177
 6.00   0.0591    686.6937   1213.8435     2086.326      43.5214 -47.21     1.217     0.958      2.356     113.6048  19.7515        178
 4.18   0.0140    685.6500    644.3535      8837.25      43.5214 -73.12     1.594     1.581      2.413     113.7464  18.1842        179
 5.68   0.0953    687.6556    130.9231      1295.14      43.5214  76.35     0.983     0.752      2.349     113.6692  20.2692        180
 7.44   0.0714    668.9944   1221.5293     1729.054      43.5214  -0.05     0.827     0.706      2.696     113.7464  19.9555        181
 3.50   0.0004    648.2678   1464.4448     277934.5      43.5214 -76.52     2.214     2.143      2.440      113.682  14.4401        182
 5.07   0.0504    654.6734    870.9016     2447.618      43.5214  21.01     1.193     1.057      2.308     113.6177  19.5781        183
 6.84   0.0700    645.7944    653.0030     1762.509      43.5214 -88.71     0.912     0.756      2.436     113.6692  19.9347        184
 7.26   0.1148    641.1874    276.8223     1075.836      43.5214 -45.77     0.755     0.569      2.274      113.682  20.4706        185
 4.14   0.0461    630.8300    806.1274     2680.966      43.5214 -34.12     1.204     1.125      2.331     113.7078  19.4793        186
 4.30   0.0280    623.4095   1581.5348     4410.966      43.5214  49.39     1.346     1.338      2.722     113.7849  18.9387        187
 7.18   0.0650    618.1836   1151.1306     1902.169      43.5214 -37.45     0.897     0.874      2.747     113.7721  19.8519        188
 8.09   0.1449    609.5256    945.4929     851.7471      43.5214  42.34     0.503     0.496      2.038     113.6434  20.7242        189
 3.50   0.0005   1563.6936    304.2686     247673.8      43.5214 -77.52     2.157     2.117      2.422     113.6434  14.5653        190
 4.14   0.0139   1566.7208     22.0779     8895.009      43.5214  75.11     1.574     1.553      2.348     113.6563  18.1771        191
 3.94   0.0120   1542.6152    654.7387     10291.35      43.5214  29.79     1.579     1.560      2.302     113.7078  18.0188        192
 3.50   0.0005   1558.0082    487.7251     244644.3      43.5214 -78.65     2.166     2.125      2.487     113.7592  14.5787        193
 4.16   0.0181   1570.5596     92.7663      6819.58      43.5214  -2.72     1.453     1.398      2.402     113.7592  18.4656        194
 4.48   0.0309   1546.1006    863.5362     3995.917      43.5214  60.15     1.564     1.328      2.539     113.6563  19.0460        195
 4.36   0.0292   1561.3612    861.4875      4223.17      43.5214  19.18     1.352     1.338      2.346      113.682  18.9859        196
 4.38   0.0211   1565.7378    784.6730     5851.823      43.5214 -79.11     1.769     1.443      2.743     113.6563  18.6318        197
 5.18   0.0776   1550.8444   1221.8484     1591.268      43.5214  42.51     1.082     0.925      2.613     113.7335  20.0456        198
 3.57   0.0017   1552.6281    682.2971     72122.45      43.5214 -26.44     4.582     3.959      4.088     113.6306  15.9048        199
 7.80   0.1005   1535.9841   1428.9976     1228.393      43.5214 -45.55     0.927     0.527      2.812      113.682  20.3267        200
 7.00   0.0648   1532.4937    415.7445     1905.479      43.5214 -84.33     1.017     0.979      2.732     113.6434  19.8500        201
 7.59   0.0895   1519.9943   1100.7047     1379.896      43.5214  89.07     0.749     0.679      2.742      113.682  20.2004        202
 4.09   0.0276    928.4031   1322.5200     4473.437      43.5214 -44.27     1.357     1.342      2.370     113.7335  18.9234        203
 3.50   0.0038   1514.9222    392.7349     32740.04      43.5214  66.54     1.807     1.797      2.410     113.6306  16.7623        204
 6.00   0.0858   1515.4878   1547.1486     1438.874      43.5214  74.03     1.048     0.871      2.478     113.6434  20.1549        205
 3.50   0.0009   1507.1836    269.3994     133807.5      43.5214 -82.06     2.049     2.030      2.487      113.682  15.2338        206
 5.55   0.1478   1498.4597    844.2532     835.4108      43.5214 -25.00     0.883     0.757      2.396     113.6692  20.7452        207
 4.56   0.0413   1504.1298    723.3583     2989.665      43.5214  14.84     1.297     1.162      2.425     113.7078  19.3609        208
 3.97   0.0155    939.1798   1067.2053     7964.072      43.5214 -23.40     1.522     1.452      2.407     113.6949  18.2972        209
 6.96   0.1306   1488.2819     78.0035     945.4539      43.5214  -1.74     0.735     0.681      2.402     113.7078  20.6109        210
 3.92   0.0402    912.8765    838.6033     3074.658      43.5214  -0.15     1.305     1.218      2.214     113.7206  19.3305        211
 5.67   0.0379    950.7991    654.3572     3263.036      43.5214  65.98     1.507     1.354      2.840     113.7592  19.2659        212
 5.84   0.0765    947.8477    445.1833     1614.044      43.5214  47.70     0.889     0.856      2.304     113.7335  20.0302        213
 5.26   0.1117   1065.7639   1597.2657     967.9027      43.5214 -14.20     0.952     0.861      1.971     99.51934  20.5854        214
 7.26   0.0412    938.5413    516.3163     2998.052      43.5214  57.72     1.300     0.997      3.097     113.6434  19.3579        215
 7.66   0.0635   1474.9158    998.3757     1944.047      43.5214 -14.25     1.054     0.754      2.845     113.7078  19.8282        216
 6.42   0.0642   1482.4310    575.2145     1923.817      43.5214 -30.81     1.204     0.969      2.722     113.7464  19.8396        217
 5.80   0.0859   1438.6464   1271.3108         1437      43.5214 -45.87     0.991     0.878      2.282     113.6434  20.1564        218
 5.08   0.0155   1072.1349   1219.1719     7960.179      43.5214 -73.97     2.049     1.696      2.978     113.7078  18.2977        219
 4.97   0.0594   1079.4351    330.1989     2078.503      43.5214   1.47     1.167     0.990      2.310      113.682  19.7556        220
 3.95   0.0186   1415.4110   1386.6447     6652.415      43.5214  75.55     1.498     1.406      2.389     113.7206  18.4926        221
 3.55   0.0043   1107.4796    428.0644     28531.04      43.5214  29.41     1.816     1.783      2.364     113.6177  16.9117        222
 3.50   0.0031   1081.7991   1148.2404     40089.98      43.5214  77.56     1.859     1.838      2.426     113.7335  16.5424        223
 5.70   0.0949   1066.6768    569.0727     1300.925      43.5214 -72.74     1.032     0.751      2.522     113.6434  20.2644        224
 6.53   0.0238   1110.7510    479.0507     5196.367      43.5214  19.20     1.749     1.562      3.517     113.7592  18.7607        225
 3.54   0.0086   1435.3314    224.8159     14328.38      43.5214  21.04     1.687     1.611      2.370     113.7592  17.6595        226
 6.26   0.0375   1090.9882    468.1736     3288.959      43.5214 -62.75     1.759     1.048      3.454     113.7078  19.2574        227
 7.39   0.0120   1441.0785   1082.6284     10281.45      43.5214  43.16     2.974     0.680      4.869      113.682  18.0199        228
 4.76   0.0455   1411.0619    350.0085     2716.477      43.5214  44.81     1.366     1.125      2.515     113.7849  19.4650        229
 8.08   1.5777   1453.3318    391.6697     78.20718      43.5214  45.06     0.575     0.334      2.287     113.6177  23.3169        230
 3.54   0.0117   1439.7888    619.2131     10529.36      43.5214 -62.85     1.575     1.554      2.343      113.682  17.9940        231
 3.50   0.0004   1393.4050    114.5455     335537.6      43.5214 -80.89     2.215     2.169      2.431     113.7978  14.2356        232
 6.42   0.2366   1436.1945   1347.1851     521.6724      43.5214  46.04     0.748     0.567      2.515     113.6692  21.2565        233
 4.63   0.0137   1120.3417    329.8551     8993.046      43.5214  55.81     2.503     1.644      3.011     113.6563  18.1652        234
 6.70   0.0840   1431.9259    340.6477     1469.619      43.5214  15.34     1.044     0.753      2.363     113.6563  20.1320        235
 4.82   0.0482   1129.1801    547.4301     2564.137      43.5214  54.92     1.192     1.121      2.383     113.7206  19.5276        236
 3.50   0.0116   1408.2377    308.3844      10626.3      43.5214  -7.03     1.547     1.510      2.286     113.7464  17.9840        237
 5.35   0.0346   1400.5464   1031.5027     3566.969      43.5214  31.11     1.429     1.368      2.615     113.6048  19.1693        238
 3.50   0.0040   1388.6937   1428.5571     31125.39      43.5214  55.76     1.789     1.763      2.537     113.6048  16.8172        239
 6.79   0.1073   1412.1804      1.3059      867.938      43.5214 -77.74     1.083     0.409      2.350     85.73102  20.7038        240
 4.72   0.0744   1406.3345    329.8578     1660.052      43.5214  26.69     1.130     1.025      2.432     113.6563  19.9997        241
 4.65   0.0692   1330.5002    386.9715     1783.921      43.5214   3.29     1.098     0.952      2.401     113.6306  19.9216        242
 4.79   0.0233   1259.4657    432.5281     5296.496      43.5214  25.38     1.823     1.760      2.976     113.6306  18.7400        243
 3.68   0.0070   1278.0730   1331.4478     17643.81      43.5214  82.55     1.714     1.699      2.460     113.6563  17.4335        244
 3.79   0.0116   1390.4578    713.3802     10625.54      43.5214  43.10     1.588     1.550      2.396     113.7464  17.9841        245
 5.96   0.0851   1388.9021    806.6555     1449.953      43.5214  13.85     0.984     0.753      2.380     113.6048  20.1466        246
 4.34   0.0172   1392.2596   1038.8943     7189.277      43.5214   8.71     1.474     1.451      2.449     113.6563  18.4083        247
 3.53   0.0031   1218.8743   1195.0033     39433.82      43.5214  54.82     1.997     1.952      2.322     113.7721  16.5603        248
 6.99   0.1564   1291.8092    546.1708     789.8763      43.5214 -44.88     0.757     0.568      2.109     113.7206  20.8061        249
 3.56   0.0032   1210.6931   1279.0286     38980.59      43.5214  82.87     5.696     3.445      4.958     113.6692  16.5729        250
 3.82   0.0352   1292.8365    412.6910     3509.791      43.5214 -22.03     1.326     1.267      2.290     113.6563  19.1868        251
 8.47   0.2637   1262.3208    216.3072     467.9879      43.5214 -45.74     0.560     0.342      1.846     113.6434  21.3744        252
 8.25   0.2021   1379.3267    319.3086     610.7947      43.5214 -45.93     0.563     0.340      1.640     113.6434  21.0853        253
 8.27   0.0508   1352.4868    152.2023     2428.207      43.5214 -89.11     1.011     0.738      3.046      113.682  19.5868        254
 3.50   0.0034   1372.5312   1019.0457     36403.88      43.5214 -41.64     1.951     1.869      2.387     113.6949  16.6471        255
 3.50   0.0010   1320.0488    660.0613     126636.8      43.5214  75.91     2.093     2.039      2.376     113.6692  15.2936        256
 5.87   0.0177   1293.5828    742.1906     6980.652      43.5214 -15.99     1.535     1.440      3.087     113.6692  18.4403        257
 7.00   0.1369   1346.3284    605.1111     901.4658      43.5214 -68.97     0.936     0.689      2.443     113.6434  20.6626        258
 3.97   0.0084   1329.8187    655.9049     14697.62      43.5214  67.51     1.921     1.813      2.500      113.682  17.6319        259
 4.12   0.0371   1332.9294    107.4837     3325.707      43.5214  -2.81     1.329     1.158      2.300     113.6177  19.2453        260
 3.50   0.0002   1298.3828    724.9477     790013.1      43.5214 -51.40     2.371     2.297      2.408     113.7464  13.3059        261
 4.19   0.0404   1304.7047    892.9962     3052.664      43.5214 -75.91     1.297     1.172      2.292     113.6692  19.3383        262
 4.08   0.0508   1319.2585    264.1429      2428.48      43.5214   6.39     1.181     1.123      2.295     113.6563  19.5867        263
 4.31   0.0102   1307.5262    669.7034     12076.75      43.5214 -32.49     1.629     1.592      2.406     113.6306  17.8451        264
 3.65   0.0027   1272.7618    610.0184     45416.64      43.5214 -58.16     4.190     2.580      3.544     113.7464  16.4070        265
 5.69   0.1038   1299.3568     54.0625     1189.499      43.5214 -68.39     0.901     0.697      2.247     113.6949  20.3616        266
 3.52   0.0043   1291.4148    762.2641     28500.28      43.5214 -23.95     2.297     1.839      2.301     113.7078  16.9129        267
 3.56   0.0089   1265.4564    807.9594     13802.74      43.5214  -7.96     1.661     1.612      2.323      113.682  17.7001        268
 6.36   0.0999   1273.6595    698.0986     1235.579      43.5214  68.67     0.919     0.693      2.460     113.6177  20.3203        269
 4.97   0.0797   1228.6499   1153.6350     1548.808      43.5214  43.00     0.997     0.872      2.411     113.7335  20.0750        270
 5.85   0.0882   1262.1962    855.0399     1400.344      43.5214 -88.04     0.907     0.755      2.550     113.7078  20.1844        271
 5.76   0.0212   1212.7454   1429.5703     5838.179      43.5214  66.31     2.076     1.803      3.537     113.7464  18.6343        272
 4.06   0.0177   1237.0374   1553.6448     6990.002      43.5214 -72.17     1.471     1.442      2.439     113.7464  18.4388        273
 6.33   0.0328   1229.7732    599.1249     3767.389      43.5214 -25.96     1.422     1.267      3.048     113.6949  19.1099        274
 3.50   0.0110   1234.4055    304.8864     11195.67      43.5214   0.76     1.619     1.566      2.318     113.6949  17.9274        275
 5.14   0.0812   1237.6368     48.3455     1520.174      43.5214  42.97     1.043     0.951      2.261     113.7206  20.0953        276
 4.28   0.0181   1207.6377    838.9413     6818.016      43.5214  35.87     1.470     1.451      2.386     113.7206  18.4659        277
 3.50   0.0020   1214.6141    513.0945      61832.2      43.5214  -0.90     1.943     1.918      2.409      113.682  16.0720        278
 4.24   0.0278   1200.8662   1442.2368     4436.344      43.5214 -76.41     1.564     1.485      2.627     113.7078  18.9324        279
 7.93   0.1479   1204.4742   1217.4802     834.2829      43.5214  43.31     0.502     0.497      2.319     113.6434  20.7467        280
 5.08   0.0173   1194.9722    124.1294     7122.604      43.5214 -83.39     1.957     1.669      3.053     113.7206  18.4184        281
 3.91   0.0186   1201.8915    339.0921     6644.428      43.5214  41.67     1.528     1.455      2.376     113.5919  18.4939        282
 5.34   0.0493   1130.2582    219.7123     2502.048      43.5214  22.28     1.184     1.117      2.442     113.6563  19.5543        283
 3.50   0.0009   1138.5420    148.1507     130962.9      43.5214  77.75     2.097     2.062      2.393     113.6949  15.2571        284
 5.95   0.1311   1181.9745    176.1647     942.0156      43.5214   3.89     0.910     0.759      2.297     113.7335  20.6149        285
 4.90   0.0543   1180.9506    549.4130     2277.141      43.5214  37.05     1.159     1.067      2.442     113.7592  19.6565        286
 4.68   0.0340   1153.5942   1353.1537     3636.444      43.5214  23.71     1.498     1.327      2.497     113.7592  19.1483        287
 3.50   0.0006   1165.1395   1299.8351     209826.8      43.5214 -78.19     2.141     2.108      2.453     113.7206  14.7453        288
 3.50   0.0018   1129.9851    183.6115     68501.95      43.5214  -6.31     1.968     1.954      2.432     113.6949  15.9607        289
 3.53   0.0051   1157.8691    236.5205     24219.05      43.5214 -59.07     1.775     1.768      2.347     113.6306  17.0896        290
 5.31   0.0487   1161.7438    887.7606     2537.886      43.5214 -40.77     1.157     1.096      2.357     113.7206  19.5388        291
 4.11   0.0208   1151.2296     99.5155     5925.391      43.5214   1.70     1.475     1.409      2.384     113.7078  18.6182        292
 6.72   0.1334   1131.0312    359.2770     925.8793      43.5214  79.06     0.733     0.682      2.244     113.6949  20.6336        293
 3.50   0.0009   1079.9672    512.2063     138830.5      43.5214  74.02     2.099     2.081      2.512     113.7206  15.1938        294
 4.04   0.0365   1095.4258   1526.6967     3380.447      43.5214  64.24     1.332     1.261      2.317     113.6692  19.2276        295
 7.24   0.1097   1086.1484   1452.8627     1125.736      43.5214  46.36     0.838     0.678      2.419     113.6692  20.4214        296
 7.41   0.0012   1090.0991    782.8873     102896.7      43.5214  45.01     1.234     0.538      3.488     113.5919  15.5190        297
 5.92   0.1115   1094.6758   1136.2837     1106.689      43.5214  42.84     0.939     0.754      2.293     113.6306  20.4399        298
 7.13   0.0569    978.4573    452.7135     2168.681      43.5214 -88.97     0.999     0.961      2.630     113.6563  19.7095        299
 7.77   0.1301   1088.0132    397.0000      949.074      43.5214  90.00     0.850     0.289      1.901     113.7078  20.6067        300
 5.99   0.0286   1065.1993   1563.2179     4318.205      43.5214 -50.91     1.822     1.345      3.364     113.6949  18.9617        301
 3.50   0.0010    984.8825    558.5286     123177.3      43.5214  86.99     2.062     2.035      2.521     113.6177  15.3237        302
 3.50   0.0018   1009.8115    813.7941     69394.47      43.5214 -23.06     1.976     1.963      2.434     113.6306  15.9467        303
 5.37   0.0758    965.2351    416.4796     1627.798      43.5214   9.67     0.991     0.951      2.245      113.682  20.0210        304
 5.22   0.0298    980.8171    797.9382     4146.546      43.5214 -22.95     1.473     1.417      2.803     113.6949  19.0058        305
 3.50   0.0007   1040.2435    633.1321     177829.1      43.5214 -86.88     2.148     2.116      2.409     113.6949  14.9250        306
 3.50   0.0034   1038.7074    525.4634      36522.4      43.5214 -89.92     1.895     1.851      2.510     113.6563  16.6436        307
 4.72   0.0168   1030.4277    302.7162     7337.105      43.5214  61.98     2.411     1.679      3.142     113.6949  18.3862        308
 5.83   0.0212    986.6929    454.0457     5819.405      43.5214  71.21     1.721     1.537      3.391     113.6048  18.6378        309
 8.75   0.1549   1014.5078    453.4610     796.9166      43.5214 -62.89     0.500     0.498      2.041     113.6563  20.7965        310
 6.43   0.1356    998.0614    233.3179     910.1979      43.5214  83.83     0.736     0.671      2.328     113.6306  20.6522        311
 3.50   0.0015   1025.7098   1380.0499     80927.24      43.5214  87.42     2.054     1.952      2.517     113.6563  15.7798        312
 3.80   0.0116   1011.3396    344.7471     10654.52      43.5214 -55.24     1.591     1.561      2.403     113.6692  17.9812        313
 8.38   0.0889   1011.2415    267.9928     1389.865      43.5214   0.33     0.699     0.428      2.248     113.7335  20.1926        314
 4.30   0.0366    999.9335   1273.7820     3377.281      43.5214 -27.04     1.275     1.172      2.452     113.7206  19.2286        315
 4.10   0.0107   1001.6805    542.7173     11556.58      43.5214  12.75     1.658     1.575      2.458     113.6306  17.8929        316
