#   1 KRON_RADIUS            Kron apertures in units of A or B                         
#   2 MAGERR_APER            RMS error vector for fixed aperture mag.                   [mag]
#   3 Y_IMAGE                Object position along y                                    [pixel]
#   4 X_IMAGE                Object position along x                                    [pixel]
#   5 THETA_IMAGE            Position angle (CCW/x)                                     [deg]
#   6 FLUX_APER              Flux vector within fixed circular aperture(s)              [count]
#   7 A_IMAGE                Profile RMS along major axis                               [pixel]
#   8 THRESHOLD              Detection threshold above background                       [count]
#   9 B_IMAGE                Profile RMS along minor axis                               [pixel]
#  10 FLUX_RADIUS            Fraction-of-light radii                                    [pixel]
#  11 FLUXERR_APER           RMS error vector for aperture flux(es)                     [count]
#  12 MAG_APER               Fixed aperture magnitude vector                            [mag]
#  13 NUMBER                 Running object number                                     
 3.50   0.0002    181.0222   1105.8365 -40.31     506196.6     6.539     18.90559     5.885      7.647     77.69909  13.7892          1
 3.68   0.0028     52.4050     61.7681  -2.27     29741.87     6.359     18.90559     5.786     11.255     77.70788  16.8666          2
 3.50   0.0018     58.9521   1076.9418  81.32     47883.59     2.093     18.90559     1.972      3.263     77.68151  16.3495          3
 3.50   0.0168     15.7237    983.4587 -87.90     5006.351     4.509     18.90559     1.979      6.663     77.66393  18.8012          4
 3.50   0.0210     17.0120     89.4810 -42.63     4011.155     1.663     18.90559     1.619      3.111     77.70788  19.0418          5
 3.50   0.0082     13.8143   1444.2383 -42.28     10232.45     1.721     18.90559     1.697      3.061     77.71667  18.0250          6
 3.64   0.2257     16.2665    382.9738  86.43     373.9175     1.231     18.90559     1.191      2.796     77.69909  21.6181          7
 4.95   0.6176     13.1674    839.5089 -76.27     136.5443     1.479     18.90559     0.949      4.059     77.65513  22.7118          8
 3.64   0.3954      9.2333   1182.3411 -70.45     213.4443     1.026     18.90559     0.964      2.551     77.70788  22.2268          9
 4.21   0.6638      5.6605   1467.9125   8.54     120.4994     1.152     18.90559     0.903      2.256     73.65622  22.8475         10
 4.51   0.1870      3.6078    143.2684  59.55     392.3638     1.696     18.90559     1.490      3.207     67.55275  21.5658         11
 5.88   0.5924      3.6479    183.5916 -38.45     124.1742     1.080     18.90559     0.962      2.946     67.73448  22.8149         12
 6.99   0.5496      2.5114    843.4935  44.82     125.4448     0.507     18.90559     0.493      2.743     63.48767  22.8039         13
 6.37   0.3237      1.8622    302.3619  20.33     204.4854     0.906     18.90559     0.677      2.609     60.95218  22.2733         14
 3.91   0.0978     23.8545    365.4416  -3.18     862.7438     1.390     18.90559     1.345      3.023     77.68151  20.7103         15
 4.93  99.0000     14.8386   1561.6169 -19.92    -53.15703     0.905     18.90559     0.686      3.335     77.71667  99.0000         16
 4.67   3.2926     17.1879   1213.4882  -0.33     25.62792     0.921     18.90559     0.725      3.318     77.69909  24.5282         17
 7.39   0.3281     15.4944    192.9995 -32.51     257.0737     0.786     18.90559     0.318      4.607     77.66393  22.0249         18
 4.18   0.1987     33.0747   1108.5681  65.68     424.5888     2.036     18.90559     1.213      4.146     77.67271  21.4801         19
 3.82   0.2088     23.0219    381.4543   6.25     404.2425     1.319     18.90559     1.170      3.785     77.72546  21.5334         20
 5.46   8.4617     22.9778    696.8055  -3.26     9.969826     0.886     18.90559     0.748      3.488     77.68151  25.5533         21
 7.61   0.8271     20.6041    212.2110 -18.94     101.9589     0.744     18.90559     0.450      2.074     77.65513  23.0289         22
 6.44   0.5312     23.9324   1451.8411 -46.75     158.8184     0.843     18.90559     0.652      2.347      77.6903  22.5477         23
 4.88   0.1426     32.3874    325.0325 -26.40     591.9181     1.486     18.90559     1.262      5.464     77.69909  21.1193         24
 7.47   1.7350     26.2151    701.0262  -0.99     48.62981     0.703     18.90559     0.411      3.941      77.6903  23.8327         25
 6.50   0.5683     33.5743     14.7714 -89.15     148.4672     0.947     18.90559     0.712      3.281     77.69909  22.6209         26
 3.57   0.7861     37.0450   1519.9745 -74.77     107.3827     1.093     18.90559     1.076      2.134     77.72546  22.9727         27
 4.28   0.2668     38.0067   1169.0526  23.11     316.4421     1.223     18.90559     1.198      3.764     77.75181  21.7993         28
 3.71   0.3260     41.6028    913.7512 -64.32     259.0039     1.133     18.90559     1.039      2.682     77.74303  22.0167         29
 3.50   0.0018     79.0617    535.8607 -66.40     45728.33     1.966     18.90559     1.931      3.091     77.67271  16.3995         30
 4.97   0.2306     43.5270    438.5287 -52.86     365.6242     1.481     18.90559     1.242      3.583     77.61994  21.6424         31
 4.10   1.2279     38.6270   1224.5396 -37.16     68.72928     1.156     18.90559     0.777      1.964     77.70788  23.4571         32
 4.55   0.2768     49.4868    263.5109  89.83     304.5605     1.455     18.90559     1.089      3.460     77.63754  21.8408         33
 4.50  99.0000     41.5007    999.9727  -1.62     -2.81194     0.790     18.90559     0.500      0.920     77.63754  99.0000         34
 7.08  99.0000     42.5779    226.7772  19.95    -23.74513     0.748     18.90559     0.450      1.535      77.6903  99.0000         35
 7.84   0.7421     45.7927    473.3825 -71.71     113.6552     0.746     18.90559     0.449      2.995     77.66393  22.9110         36
 4.11   1.3334     49.4914   1433.9777  -4.26     63.25601     1.069     18.90559     0.925      2.495     77.66393  23.5472         37
 5.09   5.8271     46.7959   1429.1587  44.33     14.48421     0.809     18.90559     0.669      3.487     77.71667  25.1478         38
 5.94   0.4713     46.8517    664.8470 -43.30     179.0714     0.825     18.90559     0.669      3.712     77.71667  22.4174         39
 6.42   0.3346     50.4846    119.9498   0.88     252.0155     0.780     18.90559     0.500      3.219     77.65513  22.0464         40
 3.52   0.0514     74.1052    126.4799 -19.14     1639.625     1.475     18.90559     1.433      2.799     77.62874  20.0131         41
 7.34  99.0000     57.4917   1240.0228 -32.67    -10.04062     0.781     18.90559     0.319      1.572     77.66393  99.0000         42
 4.98   0.4716     64.9824   1146.2659   9.37     178.9485     1.374     18.90559     1.141      4.288     77.70788  22.4182         43
 7.06   0.2871     68.4563     17.7707  88.90     294.0109     0.996     18.90559     0.721      4.062     77.71667  21.8791         44
 0.00  99.0000     66.8790   1414.1798 -28.14    -45.92309     0.963     18.90559     0.744     -7.997     77.69909  99.0000         45
 6.93  99.0000     65.5014   1514.5054 -45.69    -152.8366     0.501     18.90559     0.499      1.495     77.60235  99.0000         46
 5.53   0.5695     70.7447   1320.8502 -68.46     148.1441     0.911     18.90559     0.682      2.724      77.6903  22.6233         47
 3.50   0.0012    120.9251    787.4896 -59.16     67854.46     2.018     18.90559     1.992      3.164     77.62874  15.9711         48
 3.90   0.2230     81.3288    419.7149 -76.83     378.0421     1.520     18.90559     1.278      3.876     77.62874  21.6061         49
 3.94   0.0859     89.6612    375.3916 -19.36     983.2109     2.301     18.90559     2.014      4.683     77.74303  20.5684         50
 8.71   0.2271     75.8810     80.4187 -26.69     371.6783     1.370     18.90559     0.840      8.220     77.70788  21.6246         51
 4.79   8.2361     78.7909   1031.8494 -33.64     10.24876     0.892     18.90559     0.849      2.317     77.72546  25.5233         52
 3.50   0.0003    192.5951    316.2862 -64.39     291151.5     2.878     18.90559     2.293      3.161     77.68151  14.3897         53
 3.50   0.0351     95.5876     54.3806 -29.57     2400.016     1.614     18.90559     1.584      3.043     77.67271  19.5995         54
 5.86  99.0000     87.0195   1358.1309 -88.30    -22.71545     0.995     18.90559     0.847      0.516     77.73424  99.0000         55
 5.84   0.5951     87.4903    757.1628  35.83     141.6971     1.165     18.90559     1.017      5.308     77.64633  22.6716         56
 6.63   0.7613     82.9746    930.8279  20.66     110.8396     1.160     18.90559     0.723      2.497     77.69909  22.9383         57
 6.93   0.5074     86.4810    862.1655 -47.77     166.2658     1.108     18.90559     0.733      5.463     77.68151  22.4980         58
 6.86  99.0000     85.0348   1559.2076  52.97    -25.38786     0.930     18.90559     0.470      1.528     77.69909  99.0000         59
 6.00   0.4074     90.8526   1043.8802  55.00      206.949     1.397     18.90559     0.799      2.654     77.63754  22.2603         60
 3.82   0.3575     90.7001    494.0876   0.64     235.7322     1.105     18.90559     1.019      3.009     77.59354  22.1190         61
 4.28   0.1310     97.1019    451.1805 -12.65     643.7772     1.924     18.90559     1.255      5.807     77.64633  21.0282         62
 5.06   0.5468     94.6267   1074.8350  39.51     154.3235     1.336     18.90559     1.126      5.215     77.69909  22.5789         63
 7.44   0.3392     85.3500    923.3128 -46.64     248.6084     0.575     18.90559     0.334      2.050     77.64633  22.0612         64
 6.97   0.5138     87.8495    810.6924 -59.25     164.0865     0.869     18.90559     0.590      4.756     77.63754  22.5123         65
 6.33   0.7500     94.0801    387.5246  89.88     112.4576     0.774     18.90559     0.499      1.900     77.66393  22.9225         66
 4.03   0.0031    233.9082    401.8713 -47.20     27282.16     8.632     18.90559     7.090     16.428     77.63754  16.9603         67
 6.55   0.6040    101.8555    517.3245  20.24     139.6212     0.933     18.90559     0.683      4.090     77.65513  22.6876         68
 5.90   0.2841    112.7964    268.6332  80.50     297.0435     1.522     18.90559     1.118      5.892     77.70788  21.8679         69
 4.71   0.4843    107.3404    861.3599  41.75     174.2291     0.979     18.90559     0.859      1.105     77.69909  22.4472         70
 6.49   0.4162    106.1678   1098.1515 -41.98     202.7896     0.806     18.90559     0.676      4.313     77.71667  22.2824         71
 6.85   2.0859    106.9845   1420.9861 -44.46     40.44808     0.881     18.90559     0.534      3.221      77.6903  24.0328         72
 7.78   0.5500    106.4694    180.4571 -48.20     153.3268     0.503     18.90559     0.495      3.016     77.65513  22.5860         73
 5.35   0.3505    114.2177    414.3000 -75.12     240.5747     1.174     18.90559     0.927      4.384     77.64633  22.0969         74
 5.05  99.0000    109.9821   1513.4705   1.43    -177.6794     0.806     18.90559     0.687      0.115     77.72546  99.0000         75
 3.50   0.4479    116.1276    989.3898 -72.21     188.4409     1.139     18.90559     0.958      2.716     77.72546  22.3621         76
 4.15   0.3058    116.6369    152.4058  53.02     275.9581     1.006     18.90559     0.952      2.503     77.69909  21.9479         77
 5.52   0.2788    116.3723     65.2133   7.35     302.6981     1.480     18.90559     0.950      4.222     77.69909  21.8475         78
 3.50   0.0022    161.4548   1466.8241 -54.44     38391.82     1.934     18.90559     1.900      3.161     77.72546  16.5894         79
 5.02   0.3543    125.2403    492.5927  -6.86     238.1942     1.464     18.90559     1.092      3.874     77.70788  22.1077         80
 8.11   0.6842    117.6457    911.6918 -47.04     123.2245     0.575     18.90559     0.334      1.963     77.62874  22.8233         81
 4.68   0.3401    130.2387    416.2955 -27.12     247.8841     1.014     18.90559     0.997      2.983     77.62874  22.0644         82
 4.35  99.0000    127.1574   1476.9080  43.78    -107.3363     0.822     18.90559     0.651      2.513     77.61994  99.0000         83
 5.12   0.7942    128.0846    884.0657 -58.07     106.1496     0.780     18.90559     0.779      1.872     77.62874  22.9852         84
 5.84   0.4941    141.3550    884.3093  52.16     170.6398     2.131     18.90559     0.964      3.608     77.63754  22.4698         85
 8.30   0.9529    134.6447     97.6783 -46.36     88.50098     0.581     18.90559     0.330      3.489     77.65513  23.1826         86
 5.23   0.2779    145.7969    352.2505 -48.50     303.7954     1.407     18.90559     1.153      5.606     77.74303  21.8435         87
 0.00  99.0000    138.1987   1599.6450 -72.96    -4764.054     0.752     18.90559     0.444      4.510      58.7848  99.0000         88
 3.50   0.0096    169.2841    875.6372 -78.34     8760.653     1.768     18.90559     1.723      3.033     77.68151  18.1937         89
 3.99   0.3995    150.7436   1278.8497  28.32     211.1894     1.078     18.90559     1.029      2.906     77.68151  22.2383         90
 4.29   0.1246    164.2198   1444.2903  61.79     676.9344     1.450     18.90559     1.305      2.883     77.68151  20.9736         91
 3.87   5.4265    154.5441     80.6298 -48.01     15.55332     1.066     18.90559     0.917      1.485     77.71667  25.0704         92
 6.00   5.0254    155.1815   1578.5652   5.70     16.79105     0.898     18.90559     0.727      1.394     77.69909  24.9873         93
 7.51   0.9699    154.5055    822.5117  46.03     86.89893     0.501     18.90559     0.498      1.665     77.61115  23.2025         94
 3.50   0.1434    165.7383    102.5978 -37.77     588.7691     1.311     18.90559     1.165      2.509     77.74303  21.1251         95
 4.87   0.5087    165.0086    574.7706  86.48      165.864     1.251     18.90559     0.963      2.876     77.69909  22.5006         96
 7.70   0.2024    165.8022   1054.6754 -60.40     416.9984     1.211     18.90559     1.000      7.269     77.71667  21.4997         97
 8.26   0.4551    159.3821    491.2143  17.93     185.3859     0.756     18.90559     0.448      3.826      77.6903  22.3798         98
 5.10   0.6959    164.3577   1196.5062  18.24     121.1346     0.945     18.90559     0.817      4.101     77.61994  22.8418         99
 4.96   0.4315    167.8831    649.7219  36.86     195.4189     1.237     18.90559     1.028      4.902     77.64633  22.3226        100
 5.03   0.4285    168.4620   1367.5079  -4.70     196.8352     1.259     18.90559     0.968      2.755     77.66393  22.3147        101
 6.77   0.8701    174.8292   1198.9620 -74.73     96.99529     1.100     18.90559     0.850      5.734     77.70788  23.0831        102
 4.54   0.3066    179.3327    573.3319  24.33     275.0056     1.714     18.90559     1.330      2.730     77.63754  21.9516        103
 5.66   0.2057    185.8885   1353.4348 -69.02     410.1365     1.580     18.90559     1.377      4.177     77.67271  21.5177        104
 4.12   0.0947    191.7545   1349.0994  -8.69     890.2516     1.394     18.90559     1.366      3.020     77.60235  20.6762        105
 6.94   0.2541    189.5625   1026.0391  51.22       332.17     1.298     18.90559     1.107      5.708     77.72546  21.7466        106
 8.39   0.3679    182.3929     58.7790 -19.01     229.3278     0.766     18.90559     0.444      2.204     77.68151  22.1489        107
 3.61   0.0230    209.8589    826.0873  -7.87     3673.179     4.937     18.90559     2.269      7.695     77.65513  19.1374        108
 3.95   0.0263    229.0334    560.6039 -26.64     3213.028     3.951     18.90559     3.606      8.347     77.70788  19.2827        109
 7.27   0.6500    186.4370    834.3389  -8.75     129.8097     0.995     18.90559     0.478      4.173     77.69909  22.7667        110
 5.73   0.2058    194.2279    266.1493  -2.74     410.1782     1.598     18.90559     1.112      4.808     77.71667  21.5176        111
 3.50   0.0008    258.9285    995.8074 -39.84     102889.8     2.157     18.90559     2.062      3.182     77.72546  15.5191        112
 5.33   0.0697    207.8602    348.2912  42.92     1209.947     2.172     18.90559     1.551      5.362     77.64633  20.3431        113
 3.50   0.0478    205.7459    547.4401  30.29     1765.503     1.440     18.90559     1.435      3.081     77.68151  19.9328        114
 7.23   0.2888    193.8830   1158.3497  19.93     292.0088     0.901     18.90559     0.693      3.218     77.65513  21.8865        115
 4.67   0.2564    202.5069    249.0628 -82.07     328.9188     1.245     18.90559     1.125      2.294     77.65513  21.7573        116
 6.30   0.4262    195.0164    447.8040  -1.57     197.9144     0.905     18.90559     0.757      4.395     77.66393  22.3088        117
 3.50   0.0531    211.3949   1304.6354 -22.74     1588.592     1.484     18.90559     1.447      2.745     77.69909  20.0475        118
 3.50   0.0010    264.9597     65.7597 -32.49     86984.73     2.095     18.90559     2.035      3.081     77.72546  15.7014        119
 4.14   0.1562    209.9293    683.1187 -66.62     539.7115     1.588     18.90559     1.287      3.325     77.63754  21.2196        120
 5.97   0.3447    205.0531    940.3129  79.60      244.629     0.730     18.90559     0.683      2.488     77.63754  22.0787        121
 6.18   0.5497    204.7234    935.2993 -17.45     153.3302     1.044     18.90559     0.660      2.454     77.61115  22.5859        122
 5.76   0.5809    204.9661    182.0299 -44.92     145.2662     0.793     18.90559     0.788      3.748     77.69909  22.6446        123
 6.06   0.0838    221.6865    344.0318  25.49     1006.773     2.076     18.90559     1.969      8.929      77.6903  20.5427        124
 3.64   1.2015    208.3053   1224.1161  17.48     70.13719     1.017     18.90559     0.915      2.988     77.59354  23.4351        125
 3.50   0.0369    223.2675   1224.5825 -89.29     2289.719     1.447     18.90559     1.430      3.261     77.71667  19.6505        126
 6.36   0.5381    216.6158    881.3004 -56.94     156.7354     1.809     18.90559     0.740      6.310     77.66393  22.5621        127
 6.23   0.2275    216.7369    739.7720 -48.77     370.9138     1.484     18.90559     1.052      4.939     77.69909  21.6268        128
 3.50   0.0002    311.2113    437.7717 -43.93     356033.1     2.528     18.90559     2.337      3.176     77.70788  14.1713        129
 3.50   0.1498    221.6353    773.3149 -28.64     563.1033     1.304     18.90559     1.232      2.544      77.6903  21.1735        130
 7.25   1.1408    213.9205    791.8632 -44.17     73.90585     0.851     18.90559     0.667      2.896     77.63754  23.3783        131
 8.64   0.1526    220.8395    373.6221  32.45     553.0876     1.683     18.90559     0.981      8.781     77.70788  21.1930        132
 7.72   0.2384    226.6158    323.3230 -86.04     354.0703     1.792     18.90559     0.855      9.738     77.71667  21.6773        133
 4.09   0.0560    243.0104    111.1028 -84.61     1505.757     2.358     18.90559     1.744      5.075     77.65513  20.1056        134
 4.02   0.0241    254.5417    611.2194 -43.66     3496.178     2.738     18.90559     2.260      5.738     77.71667  19.1910        135
 7.73  99.0000    220.6618   1401.3055  46.61    -25.30752     0.567     18.90559     0.338      1.929     77.64633  99.0000        136
 6.32   0.1994    229.1916    546.3879 -64.50     422.8933     1.265     18.90559     1.034      5.987     77.65513  21.4844        137
 4.00   0.1668    238.3424    837.3022  -9.76      505.439     1.711     18.90559     1.461      4.130     77.62874  21.2908        138
 3.60  99.0000    232.0458   1551.7197 -75.01    -25.63692     0.719     18.90559     0.670      2.248     77.65513  99.0000        139
 5.39   1.4268    238.9705   1477.4504 -68.12     59.15368     1.289     18.90559     0.924      3.466     77.71667  23.6200        140
 5.53   0.1424    251.0242   1371.4264  88.51      592.678     1.875     18.90559     1.660      6.276     77.69909  21.1180        141
 5.00   0.1344    249.4536    105.7782 -15.15     627.8467     1.367     18.90559     1.268      4.385     77.71667  21.0554        142
 6.38   2.1441    247.8134   1412.9871  26.31     39.34142     1.222     18.90559     0.976      1.164     77.67271  24.0629        143
 3.56   1.0841    252.4222   1351.3031 -18.77     77.78968     1.077     18.90559     1.070      2.339     77.65513  23.3227        144
 4.93  99.0000    248.0549    561.1425 -45.10    -15.73191     0.823     18.90559     0.656      2.529     77.66393  99.0000        145
 5.40  99.0000    250.4485   1549.2814 -84.04    -17.90687     0.998     18.90559     0.957      4.253     77.65513  99.0000        146
 3.50   0.0042    286.7189   1484.9951 -39.03     20267.58     1.874     18.90559     1.841      3.146      77.6903  17.2830        147
 6.17  32.9046    248.9496    149.9729  73.74     2.565002     0.793     18.90559     0.788      3.710     77.71667  27.0273        148
 6.83   1.0988    252.4687    693.5012  40.35     76.75373     0.503     18.90559     0.496      2.701     77.65513  23.3372        149
 3.50   0.0198    281.0660   1520.9102  76.99     4269.826     1.639     18.90559     1.588      2.808     77.66393  18.9740        150
 6.41   0.3698    264.1126    722.8807 -57.13     228.0112     1.243     18.90559     0.947      3.596     77.63754  22.1551        151
 3.50   0.0003    350.4285    889.1489 -49.01     314614.3     2.387     18.90559     2.221      3.190     77.71667  14.3056        152
 3.50   0.0014    317.8304    903.7720 -63.35     59686.64     2.038     18.90559     1.981      3.118     77.70788  16.1103        153
 5.46   0.7030    264.5226    122.0393  -1.21     119.9952     1.080     18.90559     0.952      1.899     77.67271  22.8521        154
 4.90   0.1822    270.1254   1272.1100   7.57        462.6     1.506     18.90559     1.316      4.147     77.62874  21.3870        155
 6.48  99.0000    261.2282   1207.9971   0.13    -11.11133     0.689     18.90559     0.420      2.192     77.67271  99.0000        156
 6.80   0.6425    267.1037   1386.8289  48.46     131.2353     0.839     18.90559     0.668      4.058     77.64633  22.7549        157
 7.58   0.2616    268.0160    368.0384   0.94     322.6626     1.012     18.90559     0.733      5.472     77.71667  21.7781        158
 3.50   0.0003    350.4937   1344.3156 -36.91     303348.2     2.394     18.90559     2.229      3.173     77.60235  14.3451        159
 3.50   0.0056    302.1434    199.9518 -79.73     15050.57     1.813     18.90559     1.801      2.991      77.6903  17.6061        160
 6.87  99.0000    268.3021   1308.6689  43.48     -81.4654     0.562     18.90559     0.341      0.698     77.65513  99.0000        161
 3.50   0.0479    288.8237    513.3386  27.69     1761.826     1.893     18.90559     1.834      3.989     77.71667  19.9351        162
 6.27  99.0000    270.4909   1248.9762   1.18    -4.473761     0.770     18.90559     0.500      1.443     77.66393  99.0000        163
 4.38   0.0849    296.6169   1412.0374 -41.70     994.0795     3.597     18.90559     1.650      5.170     77.71667  20.5564        164
 7.97   0.5888    275.9687   1376.4888  89.22     143.2532     0.794     18.90559     0.500      3.854     77.66393  22.6597        165
 6.89   0.5119    274.5126   1369.0352   0.02     164.7501     0.780     18.90559     0.500      3.800     77.66393  22.5079        166
 3.50   0.0447    293.0799   1326.0524  -7.85     1887.021     1.499     18.90559     1.464      2.888     77.64633  19.8606        167
 4.57   0.1482    292.5134   1474.2167 -17.53     569.2985     1.626     18.90559     1.395      3.949      77.6903  21.1616        168
 6.58   1.0074    278.4937    555.5334  -0.01     83.72298     1.063     18.90559     0.500      2.303     77.66393  23.2429        169
 7.55   0.2414    287.1521    413.4819  13.30     349.3484     1.036     18.90559     0.857      5.682     77.66393  21.6919        170
 7.25  99.0000    285.3535    336.7982  67.10    -5.748559     0.735     18.90559     0.659      3.451     77.73424  99.0000        171
 4.92   0.4087    291.3463    246.8294 -26.38     206.5319     1.209     18.90559     1.045      3.307     77.71667  22.2625        172
 6.45  99.0000    286.9872   1349.7050 -88.74    -73.31839     0.744     18.90559     0.675      2.074     77.67271  99.0000        173
 3.50   0.1282    301.2831    561.9075  57.68     657.9274     1.420     18.90559     1.390      3.432     77.64633  21.0046        174
 5.46   0.1337    307.6686     83.4995  76.55      630.692     1.953     18.90559     1.350      5.313     77.64633  21.0505        175
 6.42   0.3314    294.5245    885.6899 -11.71      254.371     0.953     18.90559     0.939      2.851     77.62874  22.0363        176
 3.50   0.0086    321.1589    695.6109  55.20     9858.146     1.707     18.90559     1.700      2.975     77.69909  18.0655        177
 3.50   0.0125    345.4642    865.4515  53.74     6764.142     2.524     18.90559     2.088      3.516     77.67271  18.4745        178
 3.59   0.1031    320.7474    639.8264 -63.05     818.5876     2.503     18.90559     1.668      4.557     77.71667  20.7673        179
 7.28   0.3648    310.3055    315.7304  75.59     231.1429     1.350     18.90559     0.931      5.014     77.64633  22.1403        180
 4.10   0.0486    326.5276    593.7271   4.50     1734.662     2.087     18.90559     1.959      4.180     77.63754  19.9520        181
 3.86   3.1016    308.7935    983.5371  25.15     27.21791     0.966     18.90559     0.956      3.246     77.73424  24.4629        182
 5.26   0.7105    315.9427    225.0871  -1.04     118.7025     1.236     18.90559     0.852      2.506     77.65513  22.8638        183
 0.00  99.0000    312.7872   1494.9622  -1.51    -68.75903     0.688     18.90559     0.409      1.542     77.71667  99.0000        184
 5.10   0.4242    323.8518    954.0250  24.36     198.9799     1.570     18.90559     1.202      3.379     77.72546  22.3030        185
 4.55   0.6395    328.4711   1544.5985 -22.93      131.989     1.198     18.90559     1.133      2.201     77.72546  22.7487        186
 7.60   1.1744    320.5096    574.5020  44.12     71.76889     0.501     18.90559     0.499      2.906     77.61115  23.4102        187
 3.60   0.1845    331.2683     91.5539 -37.81     457.2117     1.251     18.90559     1.148      2.744     77.68151  21.3997        188
 5.25   0.4068    323.9714    340.2361   1.18     207.4218     0.899     18.90559     0.741      3.098     77.69909  22.2579        189
 3.50   0.0154    354.8637    430.0891  84.22     5480.025     2.035     18.90559     1.846      3.555     77.65513  18.7030        190
 4.51   0.2881    334.1932   1438.9866 -61.97      292.663     1.187     18.90559     1.115      2.673     77.63754  21.8841        191
 7.95   1.9570    328.3133    242.3292 -44.21     43.07919     0.567     18.90559     0.339      2.634     77.62874  23.9643        192
 7.57   0.5362    335.0217    621.7671  89.09     157.3778     0.704     18.90559     0.423      3.615     77.69909  22.5576        193
 5.84   0.3981    338.5684    804.0828 -10.93     211.9176     2.019     18.90559     0.865      6.840     77.68151  22.2346        194
 6.27   0.8159    336.1012    811.3517 -21.42     103.2739     1.121     18.90559     0.659      6.728     77.58474  23.0150        195
 7.84   1.0171    335.5740    609.2935   7.76      82.9272     0.983     18.90559     0.481      3.385     77.66393  23.2533        196
 3.64   0.0982    349.0482     52.9581 -34.75     859.3271     1.397     18.90559     1.349      2.622     77.70788  20.7146        197
 3.50   0.0083    367.2421    759.4966 -16.46     10192.95     1.788     18.90559     1.731      2.995     77.61994  18.0292        198
 3.50   0.0221    366.4039    441.0595  60.32     3827.789     1.703     18.90559     1.614      2.941     77.74303  19.0926        199
 6.04  99.0000    340.0346   1502.2819 -85.56    -33.23897     0.729     18.90559     0.670      1.913     77.68151  99.0000        200
 3.50   0.0017    394.2231    229.6339 -61.52     50345.27     2.001     18.90559     1.944      3.034     77.69909  16.2951        201
 7.16   0.2324    349.2558    918.5583 -43.59     363.0154     1.419     18.90559     1.262      5.483     77.67271  21.6502        202
 5.32   0.3000    347.1980     40.6213 -70.01     281.1732     1.034     18.90559     0.913      3.596     77.68151  21.9276        203
 3.50   0.0518    360.3920   1498.8724 -13.07     1627.607     1.705     18.90559     1.432      2.832     77.70788  20.0211        204
 4.36   0.1546    374.3014    752.1323  56.57     545.5443     2.498     18.90559     1.457      5.057     77.65513  21.2079        205
 4.77   0.2544    358.7290    531.6100 -31.96     331.8986     1.382     18.90559     1.241      3.672     77.73424  21.7475        206
 3.63   0.2458    359.6933   1032.4904 -13.85     342.9261     1.267     18.90559     1.224      2.233     77.62874  21.7120        207
 5.23   0.4188    362.5005   1414.1726 -86.10     201.3428     1.351     18.90559     1.231      5.673     77.63754  22.2902        208
 5.94  99.0000    355.0646   1396.9675  60.64    -9.878377     0.773     18.90559     0.771      0.926     77.69909  99.0000        209
 8.72  99.0000    352.5162   1578.9824 -32.66    -116.3513     0.781     18.90559     0.319      3.281     77.69909  99.0000        210
 6.61   0.5378    360.5316    368.4804  79.14     156.7649     0.947     18.90559     0.897      4.316     77.63754  22.5619        211
 4.38   0.1859    369.5655     69.7675 -54.66     454.0144     1.395     18.90559     1.220      4.571     77.71667  21.4073        212
 5.83   0.3101    368.2738    208.4582 -81.93     271.9579     1.185     18.90559     0.992      5.071     77.65513  21.9637        213
 3.66   0.1575    371.8491    990.9427 -12.33      535.494     1.288     18.90559     1.225      2.830     77.68151  21.2281        214
 3.96   0.2273    372.4417   1082.3573 -12.91     371.2195     1.515     18.90559     1.457      2.934     77.69909  21.6259        215
 6.83  99.0000    365.1463    940.1025 -44.47    -89.95118     0.827     18.90559     0.666      0.205     77.61994  99.0000        216
 3.50   0.0124    396.2050   1459.7307 -71.23     6801.551     1.701     18.90559     1.671      3.026     77.72546  18.4685        217
 3.62   0.3013    374.3093     85.4302 -68.26     279.9048     1.049     18.90559     0.957      2.828     77.66393  21.9325        218
 3.50   0.0103    397.1697    352.8683 -62.71     8213.859     1.731     18.90559     1.677      2.945     77.69909  18.2636        219
 3.50   0.0018    418.7024    431.5961 -53.88     46206.49     1.960     18.90559     1.933      3.050     77.67271  16.3882        220
 4.67   0.3880    381.4783     65.5865  33.45     217.5409     1.422     18.90559     1.131      4.033     77.71667  22.2061        221
 4.31   0.3399    379.1620    123.8833 -45.19     248.2182     1.160     18.90559     1.102      2.359     77.68151  22.0629        222
 8.58   0.7900    374.0639   1344.7878   1.89     106.8575     0.938     18.90559     0.750    -19.608     77.73424  22.9780        223
 6.86   0.3320    381.7127      9.4485  69.49     254.0163     1.231     18.90559     1.120      5.641     77.64633  22.0378        224
 4.83   1.0930    379.1750    510.5343 -33.43     77.19954     1.023     18.90559     0.805      2.737     77.69909  23.3310        225
 3.50   0.0508    392.8817   1087.1392   6.31     1660.781     1.464     18.90559     1.452      2.856     77.63754  19.9992        226
 3.50   0.0038    414.6595    835.7791 -87.54     22173.38     1.861     18.90559     1.824      3.080     77.70788  17.1854        227
 4.67   0.1296    395.7360    625.2922 -84.56     650.7704     2.068     18.90559     1.808      6.440     77.67271  21.0164        228
 4.31   0.8296    388.0979   1194.0056 -35.06     101.6613     1.118     18.90559     1.051      1.921     77.66393  23.0321        229
 4.90   0.4051    388.7987    259.2574 -22.61     208.4237     0.937     18.90559     0.845      3.876     77.74303  22.2526        230
 3.59   0.4270    395.6325    976.0615 -62.57     197.5777     1.294     18.90559     1.101      2.539      77.6903  22.3107        231
 5.84   0.1811    402.6347    525.0397  64.46     465.9883     2.007     18.90559     1.236      4.210     77.71667  21.3791        232
 0.00  99.0000    389.9111   1166.6669  82.68    -210.0932     0.731     18.90559     0.650      0.000     77.65513  99.0000        233
 5.42   0.3907    390.9950     93.6829  -2.17     215.9237     1.145     18.90559     0.767      3.681     77.68151  22.2142        234
 5.30   0.8296    391.8295    682.1611  45.39      101.727     0.806     18.90559     0.665      2.219     77.70788  23.0314        235
 5.85   3.6188    390.4073   1063.8210 -19.23     23.31226     0.736     18.90559     0.453      3.507     77.68151  24.6310        236
 3.50   0.0006    460.3263    806.0084 -44.64     142675.2     2.174     18.90559     2.083      3.185     77.71667  15.1641        237
 7.62   0.2569    410.8039      1.7281 -86.84     255.5512     2.264     18.90559     0.559      4.227     60.44588  22.0313        238
 5.59   0.5030    400.5119    810.9987  63.07     167.7237     0.999     18.90559     0.673      3.406     77.68151  22.4885        239
 5.11   0.6553    412.4912   1560.8536 -61.91     128.6855     1.786     18.90559     1.004      1.749     77.65513  22.7762        240
 3.52   0.3939    406.1577    280.5831 -61.55     214.1995     1.142     18.90559     1.014      2.415     77.69909  22.2230        241
 3.50   0.0208    423.2345    924.7849   9.66     4060.338     1.601     18.90559     1.597      3.012     77.69909  19.0286        242
 6.00   0.1848    420.4319    132.8687 -27.38     456.4832     2.661     18.90559     1.886      9.461      77.6903  21.4014        243
 3.50   0.0051    436.9875    250.2835  64.68     16387.33     1.841     18.90559     1.824      3.001     77.69909  17.5137        244
 5.37   0.4334    414.3479    557.6837  74.95     194.5422     1.626     18.90559     1.253      2.840     77.63754  22.3275        245
 4.53   0.0936    419.8245    157.4588  31.43     901.4056     1.965     18.90559     1.661      4.316     77.72546  20.6627        246
 3.50   0.5242    418.3754    772.9217 -64.50     160.9552     1.309     18.90559     1.134      3.260      77.6903  22.5332        247
 4.87   0.3518    417.9241   1202.9960 -69.00     239.9135     1.158     18.90559     1.150      3.685     77.71667  22.0999        248
 5.67   1.8571    419.0369   1579.2294 -64.75     45.43818     1.083     18.90559     0.984      2.477     77.69909  23.9064        249
 6.35  99.0000    416.3668    938.8957  38.22    -58.73657     1.261     18.90559     0.727      1.529     77.63754  99.0000        250
 5.72   0.1534    429.8091    717.6165  55.01     549.6038     2.286     18.90559     1.725      5.853     77.65513  21.1999        251
 4.53   0.1917    425.8258   1177.8335  37.28     440.1746     1.797     18.90559     1.380      3.015     77.69909  21.4409        252
 8.36   0.3760    413.5051    178.4913 -45.92     224.1808     0.501     18.90559     0.499      3.004     77.61115  22.1735        253
 4.20   0.0201    466.8871    849.0101  22.49     4191.472     8.631     18.90559     2.429     13.944      77.6903  18.9941        254
 0.00  99.0000    417.3970   1295.2036  17.97    -130.4834     0.762     18.90559     0.451     -4.042     77.67271  99.0000        255
 4.71   0.9808    419.9548   1090.9780  44.64     86.03996     0.782     18.90559     0.763      2.443     77.70788  23.2132        256
 3.50   3.3224    423.3932   1062.3090 -12.89     25.38616     1.067     18.90559     0.947      2.744     77.66393  24.5385        257
 3.50   0.0741    432.1249   1420.5641 -14.37     1137.852     1.485     18.90559     1.348      2.985     77.67271  20.4098        258
 3.50   0.1609    433.0948    149.3635  27.67      523.829     1.303     18.90559     1.231      2.610     77.62874  21.2520        259
 4.38   0.5762    425.3532    298.3142 -55.62     146.3898     0.976     18.90559     0.924      3.518     77.67271  22.6362        260
 3.50   0.0159    449.3134     19.5175  79.54     5293.774     1.697     18.90559     1.618      2.978     77.63754  18.7406        261
 4.28   0.8808    425.8291   1007.1801  45.92     95.80235     0.782     18.90559     0.684      1.630     77.69909  23.0966        262
 6.46   0.3132    434.7358    118.2145 -14.46     269.3915     1.345     18.90559     1.271      7.033      77.6903  21.9740        263
 7.60   0.4731    425.6917    239.6654 -43.70     178.2632     0.567     18.90559     0.339      2.089     77.66393  22.4223        264
 4.11   0.0966    444.1478    120.4551 -35.94     873.0309     1.698     18.90559     1.528      3.949     77.67271  20.6974        265
 3.50   0.1669    439.0670    303.9563 -83.47     505.4765     1.232     18.90559     1.225      2.530     77.68151  21.2907        266
 5.59   1.0297    429.2177   1307.1603 -38.83      81.9586     0.807     18.90559     0.673      2.566     77.70788  23.2660        267
 4.53   1.9254    432.5266    404.7667 -70.31     43.80962     0.964     18.90559     0.910      2.240     77.67271  23.9461        268
 4.73   0.9163    432.8159    351.6668 -60.34     92.12349     0.947     18.90559     0.890      3.827     77.72546  23.1391        269
 3.50   0.0145    456.8181     32.7335 -46.68     5816.413     1.680     18.90559     1.666      2.898     77.69909  18.6384        270
 3.63   0.0947    446.5810    882.2385   5.63     891.4093     2.634     18.90559     1.650      4.469     77.71667  20.6748        271
 4.13   0.0396    495.3749     81.0525 -72.67     2132.124     2.894     18.90559     2.604      6.032     77.73424  19.7280        272
 0.00  99.0000    437.0200   1380.9813 -37.80    -19.58034     0.808     18.90559     0.779     -0.696      77.6903  99.0000        273
 4.77   0.7450    442.9376    653.5607  68.37     113.2496     1.015     18.90559     1.000      2.675      77.6903  22.9149        274
 4.62   0.2960    442.8451    172.6565 -62.31     285.0029     1.116     18.90559     1.013      3.093     77.68151  21.9129        275
 5.99  31.7015    436.5044     52.4720 -49.04     2.659938     0.502     18.90559     0.497      2.533     77.64633  26.9878        276
 5.83  99.0000    441.0673    958.0090 -28.05     -34.2266     0.791     18.90559     0.768      1.691     77.73424  99.0000        277
 0.00  99.0000    444.5764   1503.9631  -1.95    -80.41467     1.086     18.90559     0.934     -4.374      77.6903  99.0000        278
 3.86   0.0056    532.1016    517.1438  27.64     15016.16     5.815     18.90559     4.781     10.647     77.61115  17.6086        279
 3.50   0.0455    462.7155    466.8858  48.38     1851.122     1.566     18.90559     1.468      3.076     77.62874  19.8814        280
 3.75   0.6599    452.0206   1531.8784  -2.25     127.8614     1.100     18.90559     1.075      2.094     77.69909  22.7832        281
 4.64   0.5137    453.4803   1222.8856 -38.14     164.1448     1.148     18.90559     1.028      3.551     77.63754  22.5119        282
 5.26  99.0000    450.7772   1129.9885 -89.03    -104.4131     0.923     18.90559     0.760      1.293     77.68151  99.0000        283
 3.59   0.1899    460.0517   1094.5823  38.36     444.3795     1.462     18.90559     1.254      2.969     77.70788  21.4306        284
 3.58   0.0531    470.5653    252.6783  51.79      1588.89     1.802     18.90559     1.450      3.277     77.68151  20.0473        285
 6.42  99.0000    449.5158   1353.0117   0.90    -40.74641     0.774     18.90559     0.500      0.427      77.6903  99.0000        286
 4.34   0.1948    460.4968    723.4984 -11.52     432.6706     1.812     18.90559     1.296      3.398     77.62874  21.4596        287
 3.50   0.0363    471.0944    733.2202 -22.49     2324.477     1.539     18.90559     1.498      2.839     77.67271  19.6342        288
 5.65   0.3497    472.3067   1131.0845  83.07     241.0417     2.225     18.90559     0.835      3.486     77.61994  22.0948        289
 7.38   6.3230    458.1744   1383.8328 -46.10     13.34208     0.754     18.90559     0.568      0.725     77.68151  25.2369        290
 4.30   0.1439    488.1921    838.0147 -89.19     585.8533     3.059     18.90559     1.144      7.142     77.64633  21.1305        291
 5.41   0.9675    466.0153   1196.9625  69.90     87.23854     1.187     18.90559     1.155      2.635     77.71667  23.1982        292
 3.50   0.0294    476.9968    921.4108 -29.52     2871.343     1.554     18.90559     1.492      2.868     77.66393  19.4048        293
 5.31   1.1124    464.7791    559.6370  29.06     75.87346     0.976     18.90559     0.941      2.292     77.71667  23.3498        294
 6.72   0.4501    464.5786    127.0419   1.49     187.4765     1.135     18.90559     0.944      2.595     77.70788  22.3676        295
 4.29   0.0411    495.0847   1185.2677 -27.37     2053.681     3.570     18.90559     2.495      6.273     77.64633  19.7687        296
 3.79   0.0856    477.1317   1275.4792  28.82     984.8914     1.446     18.90559     1.376      2.950     77.63754  20.5665        297
 5.98   0.2764    471.8902    780.0573   2.74     305.0827     1.088     18.90559     0.935      3.490     77.64633  21.8390        298
 7.44   0.2550    487.8899    422.9886 -48.30     330.7735     1.701     18.90559     0.984      4.565     77.68151  21.7512        299
 3.60   0.3242    478.1534    680.9650 -64.90     260.3594     1.461     18.90559     1.071      2.502     77.71667  22.0111        300
 4.00   0.4644    475.0726   1166.8925   1.25     181.5913     1.114     18.90559     1.099      2.161     77.65513  22.4023        301
 6.34  99.0000    468.3778    662.1902  17.81    -73.52962     0.748     18.90559     0.449      1.890      77.6903  99.0000        302
 3.50   0.0705    483.0456   1069.0903  -3.08     1195.623     1.380     18.90559     1.345      2.805     77.63754  20.3560        303
 6.47   4.9177    480.0155   1518.1871 -36.50     17.15676     1.487     18.90559     1.001      1.645      77.6903  24.9639        304
 5.52   0.4897    480.2343   1308.2384   0.78     172.3152     1.206     18.90559     1.072      2.435     77.69909  22.4592        305
 3.50   0.0069    511.5095   1300.7717 -86.57     12153.17     1.783     18.90559     1.771      3.086     77.66393  17.8383        306
 4.18   0.0686    503.2634    761.2393  -9.87     1230.458     2.289     18.90559     2.038      5.224      77.6903  20.3248        307
 5.85   3.1336    485.3267    826.9921  67.42     26.93389     0.897     18.90559     0.684      1.838     77.71667  24.4743        308
 3.78   0.0345    514.5527   1459.6421  24.54     2446.094     4.804     18.90559     1.835      7.911     77.70788  19.5788        309
 5.00  99.0000    492.2603    572.8713 -26.66    -32.22715     1.045     18.90559     0.854      2.345     77.66393  99.0000        310
 5.07   0.2207    500.9030   1308.7729 -78.62     382.1344     1.327     18.90559     1.225      2.252     77.64633  21.5945        311
 3.50   0.1210    501.1404    862.1825  21.91     697.4355     1.340     18.90559     1.317      2.638      77.6903  20.9412        312
 4.66  99.0000    494.4830   1419.8359  -6.11    -64.48599     1.068     18.90559     0.948      2.006      77.6903  99.0000        313
 3.71   0.3012    497.0426    364.6630   3.18      280.041     1.185     18.90559     1.114      3.126     77.68151  21.9319        314
 3.60   0.0669    512.4128   1308.8362  87.94     1260.843     1.482     18.90559     1.437      2.881     77.70788  20.2983        315
 3.50   0.0003    586.9171   1314.4430 -43.15     326095.2     2.422     18.90559     2.258      3.177     77.66393  14.2666        316
 4.29   0.1024    508.9503    162.6882  -5.14     823.2889     2.454     18.90559     1.217      4.387     77.65513  20.7611        317
 7.32   0.3599    504.5137    324.4970  71.03     234.1349     0.916     18.90559     0.902      3.748     77.60235  22.1263        318
 4.20  99.0000    502.0302    441.3327  14.30   -0.6685666     0.975     18.90559     0.750      1.816     77.69909  99.0000        319
 3.92   0.1268    512.9186   1177.8134 -27.30      665.642     1.342     18.90559     1.259      2.484     77.70788  20.9919        320
 5.02   0.6903    509.0863    451.9476  35.30     122.1532     1.219     18.90559     1.128      2.777     77.64633  22.8327        321
 4.32  99.0000    504.1009   1567.6394 -14.11    -106.2636     0.954     18.90559     0.745      2.326     77.61994  99.0000        322
 4.03   0.1702    518.2291    640.3262 -26.69     495.4872     1.532     18.90559     1.378      4.470     77.67271  21.3124        323
 6.90  17.7804    508.3430    306.9761  -0.24     4.746284     0.744     18.90559     0.651      1.917     77.70788  26.3591        324
 4.50   0.9559    517.4140   1517.7860  70.71     88.26096     1.137     18.90559     1.066      2.160      77.6903  23.1856        325
 4.69   0.3402    519.9241    852.2421   0.04     247.9223     1.235     18.90559     1.187      4.779     77.67271  22.0642        326
 7.17  99.0000    516.0298    165.1891  53.66    -47.98229     0.919     18.90559     0.470      2.475     77.71667  99.0000        327
 7.39   0.7680    519.3243    580.9985  -2.84     109.9015     0.742     18.90559     0.671      4.451     77.71667  22.9475        328
 6.49   0.7476    527.9760    163.3041  59.16     112.8333     1.193     18.90559     0.695      2.456     77.67271  22.9189        329
 3.50   0.0506    539.3113    998.3491  74.63     1665.015     1.483     18.90559     1.429      2.802     77.64633  19.9965        330
 3.50   0.4312    535.1611    402.8271  28.42     195.7737     1.644     18.90559     1.292      2.972     77.72546  22.3206        331
 3.50   0.0002    630.2494    481.5379 -32.96     403181.2     2.814     18.90559     2.630      3.804     77.68151  14.0362        332
 3.67   0.4917    543.0117    932.6339 -65.99     171.6467     2.242     18.90559     0.933     -3.695     77.70788  22.4634        333
 4.27  99.0000    530.8337   1565.1139  31.17    -103.0821     0.869     18.90559     0.842      1.714     77.68151  99.0000        334
 3.50   0.0114    571.8231   1241.3000 -77.75     7422.859     2.038     18.90559     1.669      3.156     77.63754  18.3736        335
 3.50   0.0366    558.0266   1040.2273  -7.54     2303.049     1.649     18.90559     1.507      3.039     77.69909  19.6442        336
 4.78   0.6514    545.2867    849.4893  -7.45     129.4259     0.980     18.90559     0.943      3.392     77.63754  22.7699        337
 5.14   0.0634    573.6470   1335.1353  51.49      1330.57     2.340     18.90559     1.518      5.288     77.67271  20.2399        338
 3.63   0.0545    570.2410     44.1226  49.86     1546.432     2.383     18.90559     1.604      4.411     77.67271  20.0767        339
 3.50   0.7605    554.9999    777.1362  23.72     111.0242     1.100     18.90559     1.075      2.295     77.74303  22.9365        340
 5.14   0.9354    558.2373   1067.7279  74.41     90.19381     1.376     18.90559     0.874      1.833      77.6903  23.1621        341
 3.50   0.0087    579.6503    143.1599 -48.59     9690.194     1.725     18.90559     1.693      2.925      77.6903  18.0842        342
 3.66   0.0176    595.7372    781.1780 -56.39     4790.705     3.984     18.90559     3.666      7.924     77.71667  18.8490        343
 3.55   0.0540    570.7166   1447.0137  21.20     1562.798     3.129     18.90559     1.935      4.849     77.70788  20.0652        344
 6.11   1.3789    552.7918    964.5013   0.24      61.1598     0.952     18.90559     0.725      5.074     77.65513  23.5838        345
 3.50   0.0087    581.1983    317.4514  32.75     9725.869     1.792     18.90559     1.741      2.974     77.74303  18.0802        346
 0.00  99.0000    558.6420   1404.0443  15.36    -58.88159     2.178     18.90559     0.923   -122.604     77.70788  99.0000        347
 5.50   2.8151    553.9773    804.0143 -87.40     29.96766     0.784     18.90559     0.775      1.734     77.68151  24.3584        348
 4.29   0.2142    563.7604    137.6717 -27.73     393.9819     1.275     18.90559     1.214      2.572      77.6903  21.5613        349
 3.77   0.4584    562.1314    904.2994  60.07     183.9384     1.031     18.90559     0.851      2.894     77.64633  22.3883        350
 4.21   0.5764    561.8478    839.1899 -61.35     146.4335     1.314     18.90559     0.783      1.701     77.72546  22.6359        351
 0.00  99.0000    560.0472   1502.5043  89.86    -83.11777     0.783     18.90559     0.500      0.000     77.61115  99.0000        352
 6.33   2.2835    563.3165   1168.9200 -73.02       36.927     0.999     18.90559     0.744      2.057     77.64633  24.1316        353
 4.40   0.1902    575.2334   1000.2487 -16.34     443.7281     1.684     18.90559     1.580      3.353     77.70788  21.4322        354
 6.75   0.6883    566.4789   1114.5490  65.40     122.5104     0.909     18.90559     0.900      4.874     77.64633  22.8296        355
 6.85   0.3959    564.9891   1249.5447 -27.72     213.2207     1.041     18.90559     0.670      3.923     77.73424  22.2279        356
 5.70   1.4099    565.9993    630.5061  -2.49     59.82033     0.992     18.90559     0.772      1.980     77.66393  23.6079        357
 4.81  99.0000    569.1726    112.1811 -50.32    -21.52657     0.911     18.90559     0.851      2.424     77.69909  99.0000        358
 5.94   0.2222    577.0299    737.8967  35.30     379.4728     1.383     18.90559     1.152      6.643     77.63754  21.6020        359
 9.08   0.6891    569.5020   1108.5065  45.12     122.3233     0.504     18.90559     0.496      3.026     77.61994  22.8312        360
 5.95   0.3168    578.3694    677.7878  -3.43     266.4124     1.213     18.90559     1.122      4.901     77.71667  21.9861        361
 6.66   0.7244    573.9882    548.0839  -0.44     116.4757     0.915     18.90559     0.752      4.543      77.6903  22.8844        362
 5.35   0.7737    577.6382    843.3677  21.53     109.0627     1.545     18.90559     0.887      2.216     77.69909  22.9558        363
 3.50   0.1263    583.4961     74.2241 -16.70     667.7108     1.322     18.90559     1.236      2.867     77.67271  20.9885        364
 6.00   0.4416    582.9614   1099.5001 -50.62     190.8809     1.056     18.90559     0.924      5.855     77.61994  22.3481        365
 0.00  99.0000    577.8422    695.0611  44.00    -107.5369     0.836     18.90559     0.659    -10.929      77.6903  99.0000        366
 8.92  99.0000    577.2536    480.9903   0.47    -20.76992     0.699     18.90559     0.435      2.881     77.73424  99.0000        367
 5.47   0.5010    584.4695   1171.3883   9.73       168.48     1.087     18.90559     0.994      2.973     77.72546  22.4836        368
 4.68  99.0000    581.7790   1485.1768  42.27    -165.7341     0.801     18.90559     0.663      0.619     77.69909  99.0000        369
 0.00  99.0000    582.6660   1183.9520   4.29    -107.8319     0.741     18.90559     0.674      0.000     77.67271  99.0000        370
 5.32   0.7462    583.8199    209.8069 -42.27     113.0288     0.796     18.90559     0.686      3.114     77.66393  22.9170        371
 5.23   1.1038    587.5363   1137.9189  -0.67     76.38566     1.053     18.90559     0.922      2.275     77.63754  23.3425        372
 3.50   0.3828    997.1730    231.6671 -35.31     220.4173     1.149     18.90559     1.100      2.584     77.69909  22.1919        373
 0.00  99.0000   1598.8207    709.2975   3.07    -4726.837     1.146     18.90559     0.840      6.877     62.18344  99.0000        374
 0.00  99.0000   1596.6750    653.1274 -15.58    -3573.528     2.061     18.90559     1.927   -133.263     69.88815  99.0000        375
 0.00  99.0000   1599.2190     17.0316   3.57     -4544.91     1.619     18.90559     0.795      9.711     60.61512  99.0000        376
 3.56  99.0000   1593.4586    372.2879  57.98    -1921.845     1.640     18.90559     1.347      2.371     77.30255  99.0000        377
 5.54   2.5484    909.3374   1573.8235 -27.17     33.11848     1.073     18.90559     0.876      2.251     77.71667  24.2498        378
 7.11   1.9511    909.6639    758.6678 -45.16     43.21786     0.578     18.90559     0.333      3.468     77.64633  23.9608        379
 5.11   0.2677    907.8714      3.6326 -33.39     274.3429     1.219     18.90559     0.890      3.170     67.62348  21.9543        380
 4.75   0.3397    907.2199    657.8135  39.55     248.3459     1.174     18.90559     1.115      3.847     77.67271  22.0624        381
 7.19   2.5189    907.8801    259.1469  47.10     33.47272     0.836     18.90559     0.675      2.159     77.63754  24.2383        382
 3.50   0.0003    880.5359    182.0380 -36.97     316150.8     3.768     18.90559     3.384      5.444      77.6903  14.3003        383
 3.89   0.1518    903.5399   1313.7987  84.60     556.3586     1.698     18.90559     1.165      3.741     77.74303  21.1866        384
 5.13   0.6700    903.1458    733.5557  14.18      125.932     0.975     18.90559     0.847      4.334      77.6903  22.7997        385
 3.50   0.0129    899.4399    301.0770  73.75     6543.695     1.683     18.90559     1.667      2.887     77.67271  18.5104        386
 5.35  99.0000    902.6298    120.2576 -59.53    -24.40602     0.997     18.90559     0.787      1.665     77.71667  99.0000        387
 4.04   0.0599    895.2032    537.0064   4.93     1408.743     2.345     18.90559     1.895      4.290     77.66393  20.1779        388
 5.97  99.0000    899.4494    449.5103 -24.97    -76.10965     0.501     18.90559     0.497      2.381     77.63754  99.0000        389
 5.06  99.0000    898.7358    378.2324 -44.39    -9.144703     0.743     18.90559     0.553      1.859      77.6903  99.0000        390
 4.88   0.3040    896.1893    985.8829 -70.45     277.5357     1.264     18.90559     1.113      3.030     77.69909  21.9417        391
 4.75   0.0206    877.6211    222.5485  89.23     4102.985     8.409     18.90559     2.434     12.556     77.70788  19.0173        392
 6.40   0.5952    894.1964   1570.0686 -41.29     141.8106     0.822     18.90559     0.670      2.625     77.72546  22.6707        393
 3.94   0.2065    892.8959   1424.7267 -18.50     408.2045     1.288     18.90559     1.213      3.326     77.63754  21.5228        394
 3.50   0.0007    879.3774   1591.1613 -62.85       114478     2.135     18.90559     2.017      3.113     77.70788  15.4032        395
 7.60   0.2945    891.3237   1213.3125 -45.58     286.2499     0.564     18.90559     0.340      2.741     77.61994  21.9081        396
 4.58   0.1323    887.6108    324.2768  15.54     637.8691     2.254     18.90559     1.609      3.161     77.73424  21.0382        397
 4.03   0.0933    884.7320   1303.1669  74.24      904.902     2.172     18.90559     1.403      4.475     77.70788  20.6585        398
 4.08   0.3313    887.7652    679.4688 -39.55     254.6839     1.357     18.90559     1.101      3.575     77.69909  22.0350        399
 6.93   2.8528    897.5771    727.8093  19.43     29.57533     0.734     18.90559     0.455      3.147      77.6903  24.3727        400
 3.67   0.0910    884.8380   1498.8048 -24.85      926.712     1.336     18.90559     1.281      3.123      77.6903  20.6326        401
 5.28   0.2640    883.8837    337.3351  18.66     319.4214     1.937     18.90559     1.260      2.953     77.63754  21.7891        402
 8.05  99.0000    882.3992    443.7480 -17.61    -12.23416     0.735     18.90559     0.458      2.139     77.74303  99.0000        403
 4.92   0.0646    877.1025   1175.5532 -13.24       1304.6     2.087     18.90559     1.979      6.133     77.59354  20.2613        404
 3.50   0.3254    878.5626    670.3907 -45.07     259.3535     1.548     18.90559     1.226      4.300     77.70788  22.0153        405
 3.50   0.1238    876.5951    959.5044 -79.21      681.633     1.298     18.90559     1.229      2.983     77.67271  20.9661        406
 3.50   0.0003    858.3438   1222.9988  25.48     294207.7     2.506     18.90559     2.412      3.171     77.75181  14.3784        407
 4.24   0.3907    875.3625    540.0466 -35.41     215.9934     1.105     18.90559     1.072      2.245     77.70788  22.2139        408
 3.79   0.0749    866.6870    937.9309  44.80     1125.349     2.483     18.90559     1.546      4.473     77.62874  20.4218        409
 3.50   0.4161    868.4225    642.1518  64.32     202.8268     1.174     18.90559     1.094      2.283     77.70788  22.2822        410
 5.74  99.0000    868.9875   1434.7231  86.53    -84.08321     0.718     18.90559     0.689      1.073     77.74303  99.0000        411
 4.18  99.0000    865.7755    453.1805 -42.47    -25.87765     1.103     18.90559     0.916      2.166     77.69909  99.0000        412
 4.05  99.0000    863.9379   1477.7690  55.58    -9.498954     0.983     18.90559     0.882      3.497      77.6903  99.0000        413
 6.78   0.1816    864.8473   1175.9413  16.55     464.6144     1.140     18.90559     0.950      6.219     77.68151  21.3823        414
 6.14   0.6491    863.4191    353.5639  42.72      130.031     1.045     18.90559     0.954      2.923     77.71667  22.7649        415
 6.49   1.4950    863.0830    772.3165  17.58     56.39162     1.061     18.90559     0.746      1.955     77.62874  23.6720        416
 5.42   0.3781    861.1080    266.5716  30.30      223.069     1.458     18.90559     0.973      2.998     77.66393  22.1789        417
 3.76   0.0826    858.6674   1155.9286 -48.65     1020.378     1.409     18.90559     1.335      3.133     77.62874  20.5281        418
 6.65   0.5402    861.1178    635.1364 -44.46     156.0746     0.833     18.90559     0.680      2.086     77.63754  22.5667        419
 4.20   0.6080    859.6251   1553.0254  17.27     138.8086     1.099     18.90559     0.932      2.508     77.70788  22.6940        420
 4.18   0.1171    857.5358   1338.0935 -71.37     720.1143     1.582     18.90559     1.377      3.501     77.66393  20.9065        421
 7.36  99.0000    857.3162    573.3596 -45.03    -66.54247     1.099     18.90559     0.647      0.980     77.68151  99.0000        422
 4.73   0.6951    854.7966    543.6133 -69.35     121.3355     1.437     18.90559     1.235      1.682     77.66393  22.8400        423
 9.24   1.1504    854.5144   1428.4879  44.74     73.29169     0.503     18.90559     0.496      1.046     77.63754  23.3874        424
 6.94   0.6844    854.1335   1346.3152 -20.02     123.1896     0.909     18.90559     0.683      3.154     77.63754  22.8236        425
 4.58   0.5050    849.9979   1302.0090  42.45     167.0163     0.798     18.90559     0.763      3.449     77.66393  22.4931        426
 7.12   5.2080    846.8488   1562.1501  45.17     16.20778     0.834     18.90559     0.674      2.343     77.72546  25.0257        427
 5.92   0.2253    845.6445    359.7645   5.04     374.5754     1.992     18.90559     1.388      4.666     77.72546  21.6162        428
 3.50   0.1179    843.8990   1062.4214 -47.16     714.9034     1.301     18.90559     1.216      2.800     77.63754  20.9144        429
 3.67   0.0600    842.4068   1104.7156  21.78     1406.452     1.862     18.90559     1.499      4.378     77.68151  20.1797        430
 4.98   0.0378    836.8883   1245.4850 -32.05     2227.876     2.491     18.90559     2.004      7.819     77.63754  19.6803        431
 6.17  99.0000    840.1484    545.8178 -42.72    -28.58547     0.754     18.90559     0.569      2.198     77.70788  99.0000        432
 4.78   0.2874    836.7659    990.3766  -5.11     293.6245     1.225     18.90559     1.117      4.245     77.69909  21.8805        433
 8.14   0.2275    837.4343    898.6921 -58.58     370.7104     0.978     18.90559     0.551      5.870     77.64633  21.6274        434
 3.52   0.0720    835.5318    297.0812 -64.89     1171.702     1.452     18.90559     1.419      2.563     77.63754  20.3780        435
 3.95   1.4651    835.7798   1519.0117 -23.38     57.57267     1.097     18.90559     1.040      2.613     77.67271  23.6495        436
 3.50   0.1880    834.6545    817.6158  -7.21     449.0118     1.254     18.90559     1.120      2.398     77.71667  21.4194        437
 3.72   0.0287    868.4527   1102.0677 -58.47     2939.416     2.082     18.90559     1.859      4.285     77.65513  19.3793        438
 5.90  99.0000    830.7017    403.0029  -2.39    -88.60944     0.734     18.90559     0.666      3.991     77.66393  99.0000        439
 3.50   0.0126    822.0500    652.7532 -52.62      6672.43     1.701     18.90559     1.691      2.949     77.71667  18.4893        440
 7.20  99.0000    825.9781    597.2470  88.91    -21.75456     0.685     18.90559     0.431      1.811     77.70788  99.0000        441
 5.28   1.7312    823.8243    673.1552 -46.25     48.75344     0.749     18.90559     0.571      2.837     77.71667  23.8300        442
 5.00   1.0233    821.0287    328.9834 -51.85     82.46326     0.788     18.90559     0.765      2.303     77.69909  23.2593        443
 3.50   1.3380    818.8474   1397.0322 -31.82     63.07386     1.108     18.90559     1.032      2.774     77.70788  23.5504        444
 3.85   0.4446    818.0057    777.8375 -67.26     189.7733     1.239     18.90559     0.766      3.038      77.6903  22.3544        445
 3.88   0.3755    817.8771    701.1688  40.94      224.675     1.104     18.90559     1.007      2.552     77.68151  22.1711        446
 0.00  99.0000    818.6559   1574.2931  47.62    -122.6155     0.564     18.90559     0.339      0.000     77.64633  99.0000        447
 4.00   0.2742    814.7400    876.8964  77.42     307.4808     1.579     18.90559     1.451      4.539     77.62874  21.8305        448
 3.50   1.4960    816.2355    432.0098 -17.05     56.40306     1.160     18.90559     0.868      2.741     77.69909  23.6717        449
 0.00  99.0000    808.9398   1543.1682  66.66    -256.1693     1.106     18.90559     1.010      6.636     77.69909  99.0000        450
 5.37   0.4709    808.6687    842.8378 -68.45     179.1558     0.893     18.90559     0.680      3.369      77.6903  22.4169        451
 3.50   0.0138    802.1561   1377.2687 -69.34      6119.53     1.723     18.90559     1.626      3.067     77.67271  18.5832        452
 3.50   0.0048    797.5828    694.0785 -87.88     17410.18     2.521     18.90559     1.785      3.953     77.70788  17.4480        453
 3.50   0.0298    799.6658     39.3432 -29.18      2826.75     1.733     18.90559     1.515      2.837     77.66393  19.4218        454
 0.00  99.0000    800.9561   1595.2843 -83.77    -3973.678     0.735     18.90559     0.666      0.000     73.85992  99.0000        455
 5.69   0.9156    797.9482    177.0328  89.96     92.17694     1.061     18.90559     0.726      2.476     77.71667  23.1384        456
 4.69   0.6265    793.4384    293.9872 -85.78     134.7077     1.408     18.90559     1.180      2.375     77.71667  22.7265        457
 5.05  99.0000    788.6844    407.2916  46.63    -86.48617     0.932     18.90559     0.749      1.832     77.62874  99.0000        458
 5.48  99.0000    785.3309   1347.5808  22.57    -48.07159     0.899     18.90559     0.788      3.965     77.73424  99.0000        459
 3.56   0.0360    773.3043   1425.9481 -89.25     2339.897     3.750     18.90559     2.204      5.419     77.62874  19.6270        460
 6.56   0.4429    780.4772   1265.1068  -1.37     190.3859     0.771     18.90559     0.499      3.314     77.63754  22.3509        461
 8.48  99.0000    777.2938    475.3512 -42.18    -108.1409     0.567     18.90559     0.338      1.898     77.62874  99.0000        462
 3.96   0.2023    766.9832    138.3622 -60.94     417.1502     1.496     18.90559     1.333      3.728     77.71667  21.4993        463
 3.67   0.0662    765.5649    390.1940  -2.87     1274.899     1.469     18.90559     1.420      2.788     77.69909  20.2863        464
 5.43   0.2814    766.4203    928.8621  17.25       299.88     1.177     18.90559     0.979      5.123     77.70788  21.8576        465
 4.08  99.0000    763.4435    565.8588 -13.47    -10.63015     1.026     18.90559     0.929      2.770     77.68151  99.0000        466
 6.72  99.0000    762.5083   1570.5126 -45.36    -90.07426     0.503     18.90559     0.496      1.702     77.61994  99.0000        467
 4.22   0.4420    756.6255   1339.8118 -44.25      190.844     2.002     18.90559     1.006      3.637     77.68151  22.3483        468
 6.65   0.4711    757.2419    104.2812 -82.72     179.0429     0.918     18.90559     0.632      2.270     77.66393  22.4176        469
 4.66   0.2270    753.7518    194.1373  70.38     371.5245     2.004     18.90559     1.746      3.079     77.67271  21.6250        470
 4.80   0.3450    751.5210   1078.7631 -58.73     244.4437     1.015     18.90559     0.781      2.415     77.66393  22.0796        471
 6.62   0.3497    751.7948    431.6564 -65.66     241.4352     0.990     18.90559     0.893      3.060     77.75181  22.0930        472
 7.99   0.8323    746.7986    443.8998  61.00     101.3258     0.998     18.90559     0.758      2.031     77.65513  23.0357        473
 7.28   0.3092    746.6627   1108.6885 -46.23     272.7295     0.569     18.90559     0.337      3.416     77.64633  21.9607        474
 7.69   0.1511    743.7292    839.2839  44.04     557.8716     1.422     18.90559     1.371      8.534     77.62874  21.1837        475
 3.50   0.0563    741.7888    554.6887 -46.92      1499.45     1.505     18.90559     1.450      2.856      77.6903  20.1102        476
 6.50   1.6408    745.5015    364.0371  -1.88     51.36767     0.776     18.90559     0.500      4.408     77.61115  23.7733        477
 3.50   0.0002    723.1733    403.1625 -38.65     399938.9     2.657     18.90559     2.350      3.161     77.69909  14.0450        478
 4.91   0.4736    738.4103   1271.2405  56.26     178.1527     1.037     18.90559     0.800      3.105     77.69909  22.4230        479
 3.76   0.1252    737.0958   1156.6532 -47.58     673.4125     1.281     18.90559     1.247      2.948     77.63754  20.9793        480
 3.87   0.1035    735.1339    648.1766  23.49     815.0838     1.280     18.90559     1.262      3.345     77.70788  20.7720        481
 3.50   0.0012    725.6390    846.8148  -4.11      68771.7     2.062     18.90559     2.033      3.117     77.71667  15.9565        482
 7.17   0.3582    728.8027    751.6425  70.75     235.6466     1.122     18.90559     0.877      3.831     77.71667  22.1193        483
 3.50   0.0672    726.5377   1176.7671 -12.69     1256.208     1.411     18.90559     1.372      2.933      77.6903  20.3023        484
 4.66  99.0000    727.9813   1542.4713  -1.07    -183.2155     0.809     18.90559     0.691      1.700     77.73424  99.0000        485
 3.83   0.2613    720.4841   1393.5349   9.72     322.6743     1.467     18.90559     1.242      3.300     77.63754  21.7781        486
 6.38  99.0000    721.2885    260.9367  -8.71     -33.2094     0.739     18.90559     0.673      3.516     77.65513  99.0000        487
 5.88   0.2485    740.3921    918.1597  19.20     339.6064     0.761     18.90559     0.444      3.264     77.70788  21.7226        488
 3.50   0.0608    714.8723    806.8587 -16.74     1388.053     1.451     18.90559     1.408      2.878     77.65513  20.1940        489
 7.29   0.7537    739.9937    370.4539   0.01     112.0429     0.825     18.90559     0.690      2.052     77.76059  22.9265        490
 3.50   0.0519    708.0434   1162.3575  15.51     1625.659     1.443     18.90559     1.401      2.892      77.6903  20.0224        491
 5.93   1.2198    709.3591    193.3632  45.70     69.20158     1.026     18.90559     0.876      2.659     77.72546  23.4497        492
 4.14   0.0527    703.2103   1337.6471 -71.72     1602.709     2.232     18.90559     1.846      4.224     77.72546  20.0379        493
 5.46  99.0000    706.7255    537.0632  22.78    -51.86505     1.109     18.90559     1.008      1.054     77.64633  99.0000        494
 3.50   0.0319    701.9611    950.9947 -43.79     2647.289     1.639     18.90559     1.516      3.123     77.69909  19.4930        495
 7.39  99.0000    702.3176    632.3156 -45.10    -47.37049     0.563     18.90559     0.341      0.756     77.62874  99.0000        496
 5.80  14.8831    700.5140    649.9135  -0.13     5.664454     0.779     18.90559     0.500      2.845     77.62874  26.1671        497
 4.32   0.1381    698.0168    581.0302   9.81     611.3612     2.375     18.90559     1.335      3.893     77.71667  21.0843        498
 6.55   0.4980    696.1909   1199.1677  41.45     169.4182     0.741     18.90559     0.566      3.379      77.6903  22.4776        499
 5.28   1.7654    695.3126    275.2812 -45.20      47.7655     0.919     18.90559     0.741      1.945     77.64633  23.8522        500
 4.12   0.1071    690.8043   1212.2382  38.83     787.6191     1.656     18.90559     1.406      4.379      77.6903  20.8092        501
 4.41   0.1272    685.6290   1212.3180 -31.36      663.429     1.336     18.90559     1.159      3.112      77.6903  20.9955        502
 3.54   0.8052    690.9828    314.4811 -89.34     104.8183     1.363     18.90559     1.269      3.213     77.71667  22.9989        503
 5.58   0.0412    682.1815    470.6699 -71.25      2049.45     3.997     18.90559     3.773      7.392     77.72546  19.7709        504
 8.13   1.1076    688.3418    666.6924  46.63     76.11393     0.569     18.90559     0.337      0.737     77.62874  23.3463        505
 3.50   0.0415    684.5341    642.6834 -85.70     2029.138     1.677     18.90559     1.518      2.938     77.61994  19.7817        506
 3.50  99.0000    686.5600    129.1386 -74.02    -14.12667     1.213     18.90559     1.118      1.683      77.6903  99.0000        507
 7.14   0.3935    686.3936   1043.2445  19.21     214.4792     0.756     18.90559     0.445      3.522     77.71667  22.2215        508
 4.64   0.0459    680.1719    541.9000 -72.99      1838.38     2.845     18.90559     2.013      5.567     77.62874  19.8889        509
 6.08   0.3870    684.0917    399.3588  67.60      217.802     1.243     18.90559     1.072      5.788     77.61994  22.2048        510
 7.31  99.0000    683.1840   1564.3816  71.56    -104.0196     0.750     18.90559     0.447      0.856      77.6903  99.0000        511
 7.70  99.0000    681.9842    388.5002 -87.74    -16.55984     0.807     18.90559     0.499      1.028     77.67271  99.0000        512
 6.79   1.1257    676.4925    199.9110   0.69     74.88199     0.787     18.90559     0.500      2.999     77.61994  23.3641        513
 6.35   0.6555    674.9564   1162.9944   2.98     128.7668     0.792     18.90559     0.783      4.234     77.71667  22.7755        514
 5.27   0.6178    671.8871    229.7756 -40.14     136.5451     1.169     18.90559     1.030      2.242     77.68151  22.7118        515
 6.88   4.0009    672.5187    424.4439 -49.40     21.07873     0.507     18.90559     0.489      2.448     77.65513  24.7404        516
 5.53   0.1782    668.2863   1219.9636 -52.73     473.5171     1.505     18.90559     1.346      5.984     77.68151  21.3617        517
 7.54   0.9038    668.8893    526.1393  47.57     93.31457     0.840     18.90559     0.672      3.739     77.65513  23.1251        518
 4.82   0.2282    665.7657   1178.5731   3.32     369.7323     0.954     18.90559     0.918      2.592     77.69909  21.6303        519
 4.90  99.0000    665.4871   1068.5939  69.03    -9.703715     0.931     18.90559     0.807      2.694     77.68151  99.0000        520
 0.00  99.0000    661.6160     80.7631  17.24    -100.9726     0.744     18.90559     0.454      4.461     77.71667  99.0000        521
 3.50   0.0013    647.4363   1462.9254 -64.41      66810.3     2.018     18.90559     1.955      3.130     77.67271  15.9879        522
 3.93   0.1580    653.7332    869.3082 -77.19     533.5886     1.333     18.90559     1.243      2.345     77.65513  21.2320        523
 6.76   1.5063   1533.4886    973.8960 -50.72     55.95005     1.369     18.90559     0.971      2.308     77.60235  23.6805        524
 7.63   0.3223    646.2842   1152.9969   7.20     261.7585     0.748     18.90559     0.678      4.488     77.68151  22.0052        525
 4.38   0.4418    644.7533    651.3694 -64.65     191.0472     1.230     18.90559     1.185      2.278     77.72546  22.3471        526
 3.50   0.0081    638.8298    535.1763  50.02     10455.15     1.838     18.90559     1.771      3.036     77.68151  18.0017        527
 4.27   0.4693    640.3396    274.9371 -42.66     179.7088     1.232     18.90559     1.077      2.405     77.66393  22.4136        528
 7.94   0.6317    636.8403    551.5649  84.77     133.6049     1.262     18.90559     0.484      4.839     77.71667  22.7354        529
 7.52  99.0000    638.2928    390.9521  -9.02    -2.696261     0.744     18.90559     0.677      1.244     77.62874  99.0000        530
 4.96   3.9431    630.2939    853.7196 -14.08     21.38268     0.980     18.90559     0.851      0.848     77.63754  24.7248        531
 3.50   0.1223    629.7246    804.6202  19.19     690.1514     1.308     18.90559     1.237      2.690     77.71667  20.9526        532
 5.71  99.0000    628.1733    940.8096  43.14    -35.07409     0.793     18.90559     0.684      1.684      77.6903  99.0000        533
 7.15   2.6652    625.9575    131.7406 -87.62      31.6533     0.677     18.90559     0.438      2.586     77.68151  24.2990        534
 3.50   0.0894    622.6840   1580.3485  20.28     943.0951     1.414     18.90559     1.383      2.923     77.63754  20.6136        535
 8.00   0.7778    625.4883   1286.4780  45.77     108.3772     0.506     18.90559     0.493      3.036     77.61994  22.9627        536
 8.68   0.5120    624.0000    341.9937   0.00      164.712     0.858     18.90559     0.289      3.569     77.65513  22.5082        537
 7.52   0.4746    649.6454   1159.5402 -17.03     177.7402     0.987     18.90559     0.832      4.061     77.67271  22.4255        538
 4.96   0.1200    617.2538   1150.4204 -12.75      703.485     2.287     18.90559     1.393      5.685     77.70788  20.9319        539
 6.66   0.7534    618.5089     93.3388 -32.37     111.9363     1.211     18.90559     0.851      2.529     77.65513  22.9276        540
 3.94   0.6605    615.0223   1233.4691  87.76     127.7764     1.100     18.90559     0.935      2.892     77.71667  22.7839        541
 5.29 237.0042    615.6664    117.0446  -5.76    0.3559118     0.738     18.90559     0.663      0.933     77.67271  29.1716        542
 6.09   5.4424    612.8040   1366.5983  39.27     15.49928     1.171     18.90559     0.988      0.605     77.67271  25.0742        543
 7.68   2.7574    614.2545    288.0167  -0.90     30.60895     0.679     18.90559     0.435      2.365     77.71667  24.3354        544
 4.91   0.4657    610.5709    994.0137  -0.22     181.2486     1.148     18.90559     0.951      4.463     77.71667  22.4043        545
 0.00   1.8237    608.3402   1334.2922 -68.31     46.23658     1.306     18.90559     0.899     -7.310     77.64633  23.8875        546
 5.46   2.1871    610.2504    961.5877 -71.92     38.59524     0.706     18.90559     0.464      1.602     77.72546  24.0837        547
 4.16   0.3297    608.4410    943.8952  30.88     255.6978     1.092     18.90559     0.996      2.568     77.61994  22.0307        548
 5.55  99.0000    606.6353   1009.8097 -69.38    -135.0473     0.873     18.90559     0.677      0.520     77.69909  99.0000        549
 3.53   0.0749    604.6259    584.8419 -61.11     1126.864     1.443     18.90559     1.381      2.961     77.73424  20.4203        550
 5.81   0.2896   1503.3109   1310.4329  16.06     291.2482     0.983     18.90559     0.947      4.974     77.66393  21.8893        551
 3.96   0.1246   1545.0631    861.9321  46.11     676.7849     1.840     18.90559     1.611      2.649     77.65513  20.9739        552
 0.00  99.0000    603.2000    511.9024 -30.59     -6.40782     1.053     18.90559     0.647    -16.596     77.65513  99.0000        553
 6.56   0.6551    601.7997    763.1479  43.14     128.8882     0.823     18.90559     0.670      3.060     77.74303  22.7745        554
 5.31  99.0000    599.8062   1424.6854  18.29    -68.84589     0.989     18.90559     0.881      1.319     77.68151  99.0000        555
 6.79  99.0000    598.3499    666.8875 -73.86    -15.12038     1.018     18.90559     0.751      1.361     77.64633  99.0000        556
 7.22   1.2227    595.8287   1124.1578 -45.06     69.02513     0.754     18.90559     0.572      4.527     77.71667  23.4525        557
 5.63   0.5261    592.9840    881.1221  89.40     160.4115     1.257     18.90559     0.890      5.987     77.70788  22.5369        558
 8.67  99.0000    592.3361   1355.7000  46.86    -19.66013     0.564     18.90559     0.340      2.703     77.64633  99.0000        559
 5.13  99.0000   1592.2811   1383.3767 -13.23    -780.8181     1.487     18.90559     1.105      6.014     77.68151  99.0000        560
 5.46   0.4892   1537.7726    504.2819 -81.92      172.483     1.314     18.90559     0.918      2.918      77.6903  22.4581        561
 6.43   0.9676   1588.4667   1334.4884  43.34     87.15852     0.508     18.90559     0.491      1.990     77.65513  23.1992        562
 7.02   0.3633   1551.2142    131.4193  70.62     232.2238     0.739     18.90559     0.454      3.613     77.68151  22.1352        563
 6.34   0.6420    914.5125    124.0380 -87.80     131.3812     0.795     18.90559     0.699      2.751     77.67271  22.7537        564
 3.56   0.0651   1583.8901   1107.3706  31.05     1295.591     1.439     18.90559     1.413      2.888     77.66393  20.2688        565
 3.99   0.1384    911.3047    999.6408  25.14     608.9865     1.228     18.90559     1.183      2.775     77.62874  21.0885        566
 4.90   0.2873   1590.2817    565.3278  11.70     293.4156     1.032     18.90559     0.899      3.301     77.62874  21.8813        567
 3.50   0.0858    911.7652    836.9797  46.82     983.8824     1.343     18.90559     1.296      2.916     77.70788  20.5676        568
 3.50   0.0359   1541.5651    652.9879 -80.24     2350.296     1.572     18.90559     1.520      2.697     77.70788  19.6222        569
 5.36   0.6472   1553.0010   1370.2423 -89.95     130.4162     0.684     18.90559     0.428      2.692     77.71667  22.7617        570
 4.89   0.8755   1570.4656   1337.0802  49.64     96.30743     0.857     18.90559     0.675      1.237     77.63754  23.0908        571
 5.76   0.2163    913.6678   1117.9517   2.16       389.96     1.082     18.90559     1.049      4.748     77.67271  21.5724        572
 5.56   0.2914   1561.7994    384.6131 -75.58     289.5861     1.476     18.90559     0.890      3.621      77.6903  21.8956        573
 5.30   1.5042   1584.9180   1068.0917 -36.80     56.07122     1.155     18.90559     1.083      1.451     77.66393  23.6781        574
 5.98   0.3528    916.5121   1111.4973 -71.08      238.893     0.937     18.90559     0.420      3.614     77.60235  22.1045        575
 6.59   2.2443   1585.3274    639.9982   1.63      37.6106     0.742     18.90559     0.664      2.021     77.72546  24.1117        576
 3.50   0.0226   1540.7145    133.3124 -50.71     3725.726     1.564     18.90559     1.554      2.821     77.63754  19.1220        577
 3.72   0.2820   1580.4880   1412.9047  69.04     298.8845     1.381     18.90559     1.137      3.331     77.60235  21.8612        578
 7.90  99.0000   1556.4828    736.5074 -43.82    -170.6197     0.503     18.90559     0.497      0.751     77.65513  99.0000        579
 3.87   0.3365   1574.3569   1489.9440   4.25      250.672     1.022     18.90559     0.938      2.171     77.68151  22.0522        580
 3.99   0.1516   1514.5411   1545.7484  75.59       556.51     1.713     18.90559     1.256      4.417     77.66393  21.1863        581
 3.50   0.0014   1562.5902    302.4592 -49.50     60318.86     1.981     18.90559     1.944      2.934     77.74303  16.0989        582
 3.55   0.0355   1565.5569     20.1926 -73.30     2377.704     1.533     18.90559     1.499      2.939     77.70788  19.6096        583
 3.50   0.0487   1569.3970     90.9337 -30.49     1732.014     1.511     18.90559     1.425      2.761     77.73424  19.9536        584
 3.50   0.0047   1551.5663    680.5849 -23.92     17854.45     4.963     18.90559     4.156      8.772     77.69909  17.4206        585
 3.67   0.0637   1564.7480    782.9547 -73.93     1325.017     2.173     18.90559     1.589      4.099     77.69909  20.2444        586
 3.96   0.2392   1561.7164   1564.7347  83.74     352.4653     1.068     18.90559     0.926      2.924     77.62874  21.6822        587
 3.50   0.0950   1560.2748    859.8225  73.43     888.5254     1.395     18.90559     1.346      2.604     77.70788  20.6783        588
 3.50   0.4082   1551.0110   1512.0599  29.59     206.8044     0.781     18.90559     0.773      2.236     77.73424  22.2611        589
 3.50   0.0014   1557.0215    485.9543 -57.57     59864.65     1.991     18.90559     1.950      2.911     77.70788  16.1071        590
 3.93   0.2813   1537.6398    261.7019  47.27     299.7409     0.972     18.90559     0.868      2.804     77.62874  21.8581        591
 4.31   4.3651   1550.4930    350.8476  52.56     19.31347     0.879     18.90559     0.671      1.692     77.62874  24.8353        592
 6.54   0.4750   1553.0337   1231.4982  -0.59     177.4302     0.811     18.90559     0.695      4.738     77.61115  22.4274        593
 3.68   0.1882   1535.2637   1427.3330 -46.27     447.9842     2.123     18.90559     1.077      3.181     77.64633  21.4218        594
 6.78   0.4188   1540.4457    328.4951  25.93     201.2784     0.501     18.90559     0.496      2.328     77.61994  22.2905        595
 6.09   0.3685   1450.3645   1223.7706 -72.33     228.9592     1.128     18.90559     0.669      4.761      77.6903  22.1506        596
 4.16   0.1764   1549.9670   1220.5962 -11.51     478.4928     1.264     18.90559     1.125      2.870     77.70788  21.3503        597
 4.01   0.2193   1522.6630    377.0125  59.76     384.9322     1.735     18.90559     0.951      3.104     77.71667  21.5865        598
 4.91  99.0000   1534.7495    918.2697 -19.33    -29.26777     0.935     18.90559     0.832      1.022     77.65513  99.0000        599
 4.61   0.1657   1518.0699     83.4022   9.88     509.3498     1.318     18.90559     1.191      3.557     77.72546  21.2825        600
 4.23   0.1294   1531.5778    414.1128  13.39     651.8387     1.677     18.90559     1.487      3.802      77.6903  21.0146        601
 5.56   1.1704   1527.3539    731.6343  62.03     72.11063     1.327     18.90559     1.082      2.072     77.71667  23.4050        602
 5.32   0.2835   1521.5106     12.5315  -7.76     297.4138     1.017     18.90559     0.992      3.264     77.63754  21.8666        603
 0.00  99.0000   1493.2001    870.4006  70.78    -83.21318     0.764     18.90559     0.445     -4.142     77.70788  99.0000        604
 3.99   0.1395   1513.5579    481.9728 -80.06     605.0113     1.223     18.90559     1.123      3.088     77.73424  21.0956        605
 3.50   0.0102   1513.8682    390.9596   2.32     8265.009     1.709     18.90559     1.671      2.867      77.6903  18.2569        606
 5.32  99.0000   1526.0801    877.5831 -18.35    -116.2291     1.002     18.90559     0.726      0.520     77.70788  99.0000        607
 4.68   0.2403   1487.1720     76.3101  -5.75     350.9939     1.301     18.90559     1.181      3.380     77.66393  21.6868        608
 3.50   0.1015   1503.1475    721.7911 -72.44     831.7975     1.380     18.90559     1.324      2.380     77.73424  20.7500        609
 4.72   0.3914   1519.0063   1099.2742 -87.46     215.6659     1.626     18.90559     1.220      2.763     77.73424  22.2155        610
 7.91   0.3081   1511.3092      3.6534  43.28     238.3671     0.572     18.90559     0.336      3.035     67.63358  22.1069        611
 6.27   1.5938    918.8821   1343.1436  45.01     52.91282     0.824     18.90559     0.663      1.850     77.65513  23.7411        612
 5.33  99.0000   1502.9550   1095.0253 -26.75    -8.414277     1.109     18.90559     0.888      1.262     77.72546  99.0000        613
 3.50   0.0026   1506.1284    267.6196 -39.06     32594.16     1.890     18.90559     1.876      2.892     77.73424  16.7671        614
 3.50   0.1372   1481.3833    573.6016 -45.53     614.7946     2.213     18.90559     1.470      4.294     77.67271  21.0782        615
 5.35   1.4194   1501.3430   1412.0780  75.35     59.42873     1.029     18.90559     0.740      2.771     77.67271  23.6150        616
 5.43   0.2087    915.7727    251.4663  56.44     404.3332     1.873     18.90559     1.097      4.424      77.6903  21.5332        617
 3.50   1.2587   1497.7295    842.8806  35.10     66.99133     1.131     18.90559     1.083      2.161     77.64633  23.4850        618
 4.09   0.2610    931.4003   1116.4285 -40.25     323.1299     1.036     18.90559     0.947      2.898     77.66393  21.7766        619
 7.42  99.0000   1496.3085   1123.3169 -44.54    -71.64433     0.559     18.90559     0.342      2.275     77.64633  99.0000        620
 6.18   0.2026    921.4901   1197.6259 -53.94     416.4071     1.657     18.90559     1.149      6.979     77.67271  21.5012        621
 4.53   0.2490   1437.7632    645.7658   2.75     338.9822     1.329     18.90559     0.990      3.366     77.72546  21.7246        622
 6.05  99.0000   1495.3975    928.7016 -57.86    -64.01865     0.909     18.90559     0.546      1.144     77.66393  99.0000        623
 5.31   0.5875   1466.6744   1126.9293  27.03     143.5009     1.258     18.90559     0.872      2.518     77.62874  22.6579        624
 4.37   0.7964   1497.0087   1231.3116 -88.43      105.935     0.733     18.90559     0.664      2.350      77.6903  22.9874        625
 4.70   0.2293   1474.0746    996.8602 -16.36     367.8858     2.590     18.90559     1.317      3.313     77.66393  21.6357        626
 6.97   3.8866    924.5815    309.2061 -20.12     21.70337     0.742     18.90559     0.450      1.745     77.67271  24.7087        627
 3.97   0.6897    924.8867     44.8511 -26.12     122.2641     1.060     18.90559     0.954      1.376     77.64633  22.8318        628
 7.02  99.0000   1482.3333    766.6622  44.81    -87.57174     0.579     18.90559     0.332      0.834     77.65513  99.0000        629
 5.83   0.2993    924.0271    932.7233  87.69     281.8727     0.729     18.90559     0.685      3.169     77.68151  21.9249        630
 4.61   0.2026   1475.9445    197.0222   9.99     416.5833     1.192     18.90559     0.971      4.200     77.71667  21.5007        631
 3.65   0.0655    927.3818   1321.0515 -60.20     1288.349     1.433     18.90559     1.344      3.052     77.70788  20.2749        632
 8.06   6.4645   1470.6782    428.6792 -45.05     13.04569     0.567     18.90559     0.339      0.945     77.65513  25.2613        633
 5.40   1.7672   1496.5206    671.9360   1.87     47.70639     0.770     18.90559     0.499      1.950     77.62874  23.8536        634
 6.68   0.8198   1477.1406   1022.3224  47.76      102.877     1.154     18.90559     0.627      1.463     77.65513  23.0192        635
 3.50   0.0045   1418.4011   1124.8586 -77.49     18696.86     2.022     18.90559     1.866      3.177     77.74303  17.3706        636
 8.12   0.4406   1451.5862   1163.1904 -20.41     191.4066     0.763     18.90559     0.442      2.375     77.66393  22.3451        637
 5.83   9.8463    946.8134     42.6076  50.12     8.563052     1.105     18.90559     0.675      3.073     77.63754  25.7184        638
 5.27   0.1916   1402.8489   1361.6335 -74.33      440.555     1.115     18.90559     0.938      3.567     77.70788  21.4400        639
 5.49   0.8824    946.4409    131.7579 -14.69     95.64182     1.108     18.90559     1.032      1.074     77.70788  23.0984        640
 7.16   0.5518   1474.9755   1569.0132  31.13     152.8762     0.800     18.90559     0.795      4.803     77.68151  22.5891        641
 5.21   0.6738    925.0620    664.6942  35.82     125.1404     0.997     18.90559     0.819      3.340     77.64633  22.8065        642
 5.40   0.3473    940.5189    724.4358  41.32     242.8739     1.064     18.90559     1.034      3.586     77.68151  22.0865        643
 3.50   0.2209   1452.4904    389.9434  -2.31     381.7701     1.051     18.90559     0.921      2.735     77.64633  21.5955        644
 4.82   0.1438    937.3098    514.6938  60.38     586.0009     2.256     18.90559     1.650      4.751     77.61994  21.1303        645
 3.50   0.0055    928.7859   1176.9735 -63.34     15330.19     1.788     18.90559     1.770      3.019      77.6903  17.5861        646
 4.99   0.3554   1456.7534    610.2356 -77.31     237.4912     0.967     18.90559     0.854      2.542     77.71667  22.1109        647
 3.50   0.3976    946.7559    443.5303 -11.64     212.1682     1.245     18.90559     1.172      2.361     77.67271  22.2333        648
 4.15   0.1576   1437.7389   1269.7083 -34.43     535.0887     1.244     18.90559     1.181      2.731     77.66393  21.2289        649
 3.55   0.0414    938.2715   1065.6440  74.35     2035.418     1.516     18.90559     1.424      3.051     77.66393  19.7784        650
 6.58   1.6325   1453.9989    921.0148   0.10     51.66463     0.618     18.90559     0.610      2.250     77.66393  23.7670        651
 8.04   0.3613   1454.6998   1143.3197  43.89     233.2544     0.557     18.90559     0.343      3.117     77.59354  22.1304        652
 3.50   0.1271   1431.2603    339.1749  19.84     663.8948     1.931     18.90559     1.296      3.680     77.70788  20.9948        653
 6.94   0.8905   1453.4241    165.2227  19.37     94.77201     0.747     18.90559     0.453      3.470     77.70788  23.1083        654
 4.67   5.6364    948.6108    265.9981  16.72     14.96404     1.079     18.90559     0.933      2.364     77.66393  25.1124        655
 3.50   0.0340   1438.7891    617.5158  -9.75     2483.782     1.518     18.90559     1.457      2.520      77.6903  19.5622        656
 3.50   0.5196   1436.2822    385.9742 -10.44     162.3711     0.726     18.90559     0.665      2.125     77.68151  22.5237        657
 4.85   0.5393    949.4341    825.3799 -67.70     156.4581     0.963     18.90559     0.841      3.235     77.69909  22.5640        658
 3.50   0.0006   1433.4287   1089.0946 -40.78     145156.2     2.216     18.90559     2.101      3.064     77.65513  15.1454        659
 4.96   0.3435    951.0420     59.8504 -55.61     245.6494     1.223     18.90559     1.146      2.563     77.70788  22.0742        660
 4.48   0.0637    985.7009    452.4940  66.36     1323.771     2.192     18.90559     1.917      4.588     77.61115  20.2455        661
 4.81   0.3601   1448.4435     86.3038 -75.48     234.1197     0.964     18.90559     0.937      3.851     77.61994  22.1264        662
 5.81   0.6959    958.6643    891.9353   5.72     121.1752     0.739     18.90559     0.656      2.915     77.64633  22.8415        663
 6.70   0.3390    952.3122   1502.9946   2.63     248.8585     0.732     18.90559     0.667      2.915     77.67271  22.0601        664
 6.60  99.0000    962.8923    422.3037  19.58      -68.435     0.935     18.90559     0.675      3.528     77.61115  99.0000        665
 0.00  99.0000   1445.3502    729.8088 -28.36    -116.4157     1.132     18.90559     1.047      6.792     77.72546  99.0000        666
 8.96   0.7151   1431.5128   1278.9904 -32.00     117.9791     0.800     18.90559     0.312      4.202      77.6903  22.8705        667
 6.33  99.0000    975.5884     70.2583 -18.53    -119.0223     0.739     18.90559     0.456      0.973     77.72546  99.0000        668
 0.00  99.0000   1422.9612   1595.5355  27.20    -3820.557     1.054     18.90559     0.653      6.323     73.22847  99.0000        669
 3.50   0.0231   1434.2783    223.0297 -38.73      3647.42     1.575     18.90559     1.529      2.870     77.67271  19.1450        670
 3.68   0.1067    949.7264    652.6766  89.27      790.431     2.209     18.90559     1.529      4.461     77.64633  20.8053        671
 6.10   0.4694    954.1638   1027.8688  44.93     179.7811     0.809     18.90559     0.675      2.836     77.69909  22.4131        672
 6.84   0.4347    983.8214    952.2770 -36.11     194.1044     1.047     18.90559     0.527      5.225     77.69909  22.3299        673
 5.98   0.2203   1391.8539   1532.9331 -74.35     382.8981     1.314     18.90559     1.120      6.540     77.66393  21.5923        674
 3.50   0.0319   1407.1237    306.5707 -33.37     2647.274     1.524     18.90559     1.452      2.833     77.68151  19.4930        675
 3.94   0.2613    964.0480    414.7322 -20.48     322.8543     1.256     18.90559     1.116      2.666     77.67271  21.7775        676
 6.92   0.5332    973.0498    546.6980 -15.16     158.0469     1.003     18.90559     0.749      5.766     77.59354  22.5530        677
 3.50   0.2891   1435.2114   1345.9427 -76.43     291.9698     1.103     18.90559     1.098      3.013     77.72546  21.8867        678
 5.44   0.5132    976.1675   1279.1414 -43.84      164.448     0.813     18.90559     0.681      3.293     77.70788  22.5099        679
 3.50   0.0028    983.9273    556.8638 -47.92     29704.07     1.891     18.90559     1.871      2.963     77.63754  16.8680        680
 6.11   0.2374   1410.6138    365.7228 -69.34     355.6081     2.048     18.90559     0.652      5.674     77.73424  21.6726        681
 5.38   0.2190   1387.7228   1583.7048   3.16     384.8249     0.928     18.90559     0.853      2.473     77.61994  21.5868        682
 3.62   0.0472   1414.4304   1385.1575  32.96     1789.096     1.424     18.90559     1.390      3.161     77.72546  19.9184        683
 5.58   0.3210    977.7038   1064.9983  -4.34     262.7878     0.728     18.90559     0.665      2.829     77.68151  22.0010        684
 5.97   0.3879   1419.1465    428.0791 -41.74     217.3856     0.853     18.90559     0.657      2.666     77.64633  22.2069        685
 6.80   0.3159   1417.7028    105.0311 -11.65     266.8362     0.750     18.90559     0.672      3.230     77.62874  21.9844        686
 5.35   0.3107    981.3090   1485.5173 -20.65      271.418     0.951     18.90559     0.926      4.642     77.65513  21.9659        687
 3.73   0.1174   1410.1467    348.3118  48.27     718.0613     1.824     18.90559     1.430      3.584     77.64633  20.9096        688
 4.79   0.2502    977.1621    451.1198 -80.29     337.1886     1.395     18.90559     1.281      2.583     77.67271  21.7303        689
 4.03   0.1153   1405.3202    328.2343 -52.99     731.4862     1.263     18.90559     1.192      2.837     77.67271  20.8895        690
 3.50   0.0010   1392.3256    112.7033 -57.14     81413.66     2.043     18.90559     1.990      2.950     77.64633  15.7733        691
 4.16   0.0826    979.9540    796.3262 -60.74     1020.776     1.897     18.90559     1.679      4.753     77.65513  20.5277        692
 7.69   0.4034   1401.2513     61.0088  -0.45     209.2809     0.683     18.90559     0.434      4.017     77.73424  22.2482        693
 3.50   0.0110   1387.8695   1427.1104 -78.66     7690.741     1.676     18.90559     1.662      2.973     77.62874  18.3351        694
 5.43   0.2233   1305.7584    572.4661 -28.68     377.7613     1.038     18.90559     0.790      2.734      77.6903  21.6070        695
 5.53   0.5181   1028.8491    945.8722 -42.73     162.7511     0.837     18.90559     0.654      3.701     77.63754  22.5212        696
 4.18   0.0978   1399.7241   1029.9249  30.94     862.2352     1.676     18.90559     1.466      3.370     77.64633  20.7109        697
 7.24   0.3148   1388.1443   1100.9866  85.64     268.1251     0.920     18.90559     0.753      4.406     77.72546  21.9792        698
 5.40   0.2377   1396.0151   1101.5850   5.73     354.9765     0.989     18.90559     0.763      3.808      77.6903  21.6745        699
 7.62  99.0000   1386.4980    675.9568   0.02    -94.17052     0.789     18.90559     0.500      1.033     77.61994  99.0000        700
 8.03   0.7620   1402.0109   1343.7205 -84.02     110.7549     0.758     18.90559     0.680      3.437     77.70788  22.9391        701
 4.65   0.0116   1358.5231   1133.8226  74.98     7260.305     9.508     18.90559     6.594     22.163      77.6903  18.3976        702
 3.50   0.0325   1389.4053    711.6841  81.49     2594.594     1.589     18.90559     1.516      2.714     77.68151  19.5148        703
 6.99   0.1934    990.2462      7.4625 -28.26     433.5673     1.469     18.90559     1.124      6.336     77.21416  21.4574        704
 3.50   0.0003   1365.6389   1158.5627 -61.99     337153.5     2.775     18.90559     2.613      4.633     77.71667  14.2304        705
 3.50   0.0513   1391.3113   1037.2988 -67.49     1643.463     1.494     18.90559     1.448      2.740     77.61115  20.0106        706
 6.34   0.4897   1027.8447    179.1574 -46.03     172.3592     1.273     18.90559     0.867      4.197     77.71667  22.4589        707
 8.07   0.3144   1384.5070   1383.5040  -0.31     268.0761     1.068     18.90559     0.500      4.498     77.61115  21.9794        708
 4.49   0.2377   1378.1963    317.5049 -18.68     354.8167     1.323     18.90559     1.092      3.304     77.66393  21.6750        709
 4.99   0.7121   1027.0353    462.2316  -5.81     118.4929     0.873     18.90559     0.743      2.409     77.69909  22.8658        710
 4.34   0.8770   1027.3413    350.5627 -39.74     96.21509     1.013     18.90559     0.865      3.742     77.69909  23.0919        711
 4.72   0.1032   1351.2303    150.2305  80.68     817.7945     2.162     18.90559     1.660      5.814     77.70788  20.7684        712
 3.62   0.3391   1345.8954    192.6021  62.75      248.747     1.027     18.90559     0.942      2.008     77.68151  22.0606        713
 3.50   0.0094   1371.5310   1017.4489 -37.34     9008.798     1.902     18.90559     1.751      3.033     77.66393  18.1633        714
 0.00  99.0000   1026.6232    605.9142  -0.73    -104.1298     1.056     18.90559     0.926      1.677     77.68151  99.0000        715
 4.61   0.2251   1367.3762    147.6849  44.63     374.8389     1.049     18.90559     0.928      3.897     77.68151  21.6154        716
 6.03   2.4375   1368.1707   1068.1990  45.38     34.59781     0.745     18.90559     0.564      0.916     77.65513  24.2024        717
 5.57   0.1767   1369.6470   1213.9382 -16.30     477.2505     1.108     18.90559     0.943      5.021     77.67271  21.3531        718
 5.44   0.3732   1311.2119    269.9725   1.04     226.1045     0.698     18.90559     0.409      2.012     77.70788  22.1642        719
 3.94   0.2865   1276.5571    341.7841  80.92     294.5418     0.954     18.90559     0.928      2.417     77.70788  21.8771        720
 3.50   0.0250   1264.4229    806.2896 -18.43     3377.265     1.560     18.90559     1.538      2.880     77.68151  19.2286        721
 7.00  15.8889   1307.3242    793.3080 -45.86     5.306507     0.562     18.90559     0.341      1.176     77.63754  26.2380        722
 3.50   0.0818   1094.6395   1525.1777 -30.46     1031.628     1.334     18.90559     1.266      3.057     77.70788  20.5162        723
 6.63   0.3457   1361.7042   1110.3534  56.98     243.7912     1.183     18.90559     0.776      3.706     77.61115  22.0825        724
 4.76   0.3085   1351.8541    473.8246 -48.19     273.6332     0.815     18.90559     0.672      2.574     77.73424  21.9571        725
 5.27   0.5061   1369.7343    705.0079   5.00      166.809     0.719     18.90559     0.666      3.248     77.74303  22.4945        726
 4.34   0.3268   1359.8328   1242.1254  42.19     258.0799     0.788     18.90559     0.679      2.074     77.67271  22.0206        727
 7.35  99.0000   1351.7126    965.6663 -42.38    -66.26372     0.557     18.90559     0.342      2.106     77.64633  99.0000        728
 5.66   0.0615   1329.6985   1138.2083 -78.58     1372.333     2.447     18.90559     1.630      8.399     77.65513  20.2064        729
 8.03   0.7168   1098.2954    861.6458  42.19      117.602     0.569     18.90559     0.337      3.413     77.61994  22.8740        730
 8.52   0.4244   1361.5084    525.3306 -89.77     198.6714     0.931     18.90559     0.470      3.894     77.64633  22.3047        731
 5.18   0.2613   1361.7424    389.2371 -25.90     322.9126     1.318     18.90559     0.771      4.189     77.69909  21.7773        732
 5.33   0.3665   1302.4600     40.9724  88.35     230.2715     0.798     18.90559     0.697      3.293     77.71667  22.1444        733
 3.84   0.2277   1345.2644    603.6066 -53.36     370.6798     1.351     18.90559     1.168      3.981     77.73424  21.6275        734
 4.45   0.2056   1298.1709     52.2045  42.58      410.347     1.145     18.90559     1.089      3.098      77.6903  21.5171        735
 6.46   0.4498   1305.3463    842.9009  21.88     187.3569     1.169     18.90559     1.048      4.393     77.60235  22.3683        736
 3.50   0.0285   1306.4845    668.0395 -50.87     2956.041     1.914     18.90559     1.586      2.868     77.68151  19.3732        737
 3.50   0.0221   1328.8699    654.2535  11.69     3811.452     1.733     18.90559     1.657      3.191     77.65513  19.0973        738
 3.51   0.0743   1331.7373    105.7020 -22.36     1135.691     1.408     18.90559     1.294      2.782     77.65513  20.4118        739
 3.92   0.2468   1387.8553    805.0548  64.31     341.7701     1.193     18.90559     1.139      2.501     77.68151  21.7157        740
 3.50   0.0028   1318.9818    658.3548 -10.07      30430.5     1.880     18.90559     1.869      2.938     77.70788  16.8417        741
 8.15   0.3506   1316.2993   1355.6572  42.83       240.41     0.566     18.90559     0.339      3.068     77.61115  22.0976        742
 3.50   0.0001   1220.4615    993.4240 -37.25     613546.1     7.178     18.90559     6.670      7.811     77.71667  13.5804        743
 6.41   0.2630   1314.3456   1132.9926   3.01     321.1494     0.742     18.90559     0.668      3.668     77.76059  21.7832        744
 3.58   0.0597   1258.4662    430.8267  -5.62     1412.908     2.268     18.90559     2.110      4.749     77.69909  20.1747        745
 7.00   0.2762   1338.1383   1478.8722  41.74     305.2821     0.831     18.90559     0.669      4.454     77.65513  21.8382        746
 7.08   0.4636   1301.7408    937.3929  86.72     182.1013     1.329     18.90559     0.611      2.516     77.74303  22.3992        747
 6.17   0.2765   1324.0872    631.8570   9.21     305.0142     1.745     18.90559     0.712      6.242     77.64633  21.8392        748
 3.71   0.1101   1303.8031    891.3152 -58.81      766.106     1.341     18.90559     1.271      2.881     77.68151  20.8393        749
 4.11   0.0284   1306.6106   1034.6216 -39.20     2971.331     2.756     18.90559     2.091      5.746     77.67271  19.3676        750
 3.50   0.1245   1329.3933    385.2852  -3.69     677.6719     1.296     18.90559     1.253      2.786     77.68151  20.9725        751
 3.64   0.0996   1318.3696    262.4020 -29.61     846.8006     1.276     18.90559     1.231      3.140     77.67271  20.7305        752
 6.94   0.6856   1322.6433    957.6936 -47.21     122.9535     0.575     18.90559     0.334      2.185     77.61994  22.8256        753
 3.50   0.0004   1297.3101    723.3259 -19.97     190929.4     2.659     18.90559     2.132      3.054     77.63754  14.8478        754
 7.95   0.3268   1100.0000    111.0088   0.00     258.0224     0.859     18.90559     0.289      3.363     77.65513  22.0209        755
 7.44   0.6088   1311.9938    998.0768 -28.43     138.5932     1.170     18.90559     1.052      3.335     77.69909  22.6956        756
 3.93   0.1099   1128.1840    545.7701 -30.27     767.6552     1.357     18.90559     1.284      2.915     77.71667  20.8371        757
 3.50   0.0115   1290.3876    760.6219 -25.70     7320.375     2.257     18.90559     1.708      3.496     77.68151  18.3887        758
 3.50   0.0189   1277.2014   1329.9415 -87.78     4461.204     1.635     18.90559     1.592      2.986     77.74303  18.9264        759
 5.36   0.2356   1384.7158   1272.3895  46.12     358.1203     1.497     18.90559     1.334      3.450     77.68151  21.6649        760
 6.67   0.5661   1123.5750    756.7877 -48.27     149.0113     1.098     18.90559     0.721      4.429     77.68151  22.6170        761
 6.04   3.5009   1124.4918    274.9145  -0.16     24.07543     0.776     18.90559     0.500      2.324     77.61115  24.5961        762
 6.67   0.2092   1175.9192     17.0545 -23.45     402.9564     1.282     18.90559     0.648      5.954     77.63754  21.5369        763
 6.61  99.0000   1299.0090    845.0176  -0.23    -5.068023     0.629     18.90559     0.597      1.745     77.66393  99.0000        764
 8.09   0.2445   1128.5016    872.2014  88.21     344.9693     0.976     18.90559     0.730      5.854     77.65513  21.7055        765
 4.20   0.2983   1290.6204    544.2021 -20.71     282.7762     1.143     18.90559     1.012      2.175     77.68151  21.9214        766
 6.33   0.2883   1292.7864   1089.9070  60.37     292.5819     0.923     18.90559     0.748      3.828     77.67271  21.8844        767
 7.27  24.7356   1104.0562    625.2693  83.01      3.40939     0.721     18.90559     0.682      1.303     77.65513  26.7183        768
 3.50   0.0003   1150.6973    692.2532 -38.99       291402     2.887     18.90559     2.676      4.636     77.61994  14.3888        769
 3.50   0.0952   1291.5846    411.0669  -7.91     886.7938     1.363     18.90559     1.260      2.610     77.72546  20.6804        770
 8.12   0.2288   1107.3711    969.7735 -17.41     368.8598     0.756     18.90559     0.447      3.895     77.70788  21.6328        771
 4.77   0.2848   1282.3370   1567.6477 -45.17     296.1373     0.972     18.90559     0.847      2.736     77.67271  21.8713        772
 4.40   0.0453   1202.3214   1074.0956  33.00     1859.405     2.223     18.90559     1.786      5.535     77.61994  19.8766        773
 8.52   0.5915   1152.4865    574.5125 -44.93     142.5285     0.506     18.90559     0.494      2.851     77.62874  22.6652        774
 7.49   2.9087   1196.4852   1199.4744  48.16     28.98398     0.502     18.90559     0.498      2.157     77.62874  24.3946        775
 5.26  99.0000   1129.1439   1143.1812 -48.55    -11.65874     0.817     18.90559     0.666      2.544     77.69909  99.0000        776
 7.01   0.1541   1140.4651    659.7985 -52.32     547.8652     1.893     18.90559     1.522     10.542     77.74303  21.2033        777
 4.18   0.1928   1272.8336    696.5293 -23.77     437.5513     1.376     18.90559     1.208      3.901      77.6903  21.4474        778
 4.58   0.2413   1261.2365    853.7141 -51.40     349.6763     1.240     18.90559     1.125      2.607     77.68151  21.6908        779
 4.33   0.5077   1172.2396    206.5415  -0.52     166.2051     0.948     18.90559     0.716      3.067     77.69909  22.4984        780
 7.67   0.2935   1144.4635   1337.2426  -9.82      287.465     1.001     18.90559     0.475      4.054     77.68151  21.9035        781
 7.53   0.1511   1227.8853    913.5693 -17.44     558.3979     1.499     18.90559     1.332      8.993      77.6903  21.1826        782
 4.39   0.2950   1105.8502   1265.8051 -41.21      286.169     0.868     18.90559     0.840      2.494     77.74303  21.9084        783
 5.42   0.2235   1243.1521    612.2711   8.43     377.3611     1.060     18.90559     0.898      2.093     77.66393  21.6081        784
 4.15   0.1483   1227.8395   1152.2141 -22.11     569.0986     1.188     18.90559     1.147      2.873     77.71667  21.1620        785
 3.50   0.0074   1271.8032    608.2762 -58.06     11378.08     4.613     18.90559     2.623      6.861     77.69909  17.9098        786
 6.11   0.3807   1243.4989   1537.5067 -45.16     221.3972     0.504     18.90559     0.496      2.802     77.61994  22.1871        787
 3.50   0.0056   1213.5747    511.3549 -25.18     14983.22     1.795     18.90559     1.778      2.887     77.72546  17.6110        788
 3.50   0.1151   1236.6469     46.4764  -7.04     732.3951     1.257     18.90559     1.207      2.982     77.65513  20.8881        789
 3.54   0.0791   1241.5844    671.1392   6.78     1066.878     1.349     18.90559     1.311      2.840      77.6903  20.4797        790
 4.91   0.4424   1128.6785    503.2145 -72.86     190.7819     0.970     18.90559     0.848      3.964     77.71667  22.3487        791
 6.05   0.3130   1237.0966    855.9076 -56.54      269.255     1.347     18.90559     1.137      3.083     77.61115  21.9746        792
 3.50   0.0086   1209.7596   1277.4928  80.92     9769.882     6.133     18.90559     3.697     10.026     77.61115  18.0753        793
 3.89   0.2106   1179.9685    547.8348  27.07     400.7534     1.325     18.90559     1.278      2.440     77.70788  21.5428        794
 3.52   0.0448   1236.1481   1552.2064 -62.25     1883.011     1.513     18.90559     1.419      3.238     77.75181  19.8629        795
 5.47   0.0831   1228.9092    597.3938  -8.65     1014.493     1.958     18.90559     1.837      7.925     77.65513  20.5344        796
 7.87   0.5839   1223.3279    403.3292 -44.94     144.3627     0.573     18.90559     0.336      2.789     77.61994  22.6514        797
 7.66   0.3823   1174.8308    251.6800 -22.04     220.6477     0.744     18.90559     0.641      2.965     77.68151  22.1908        798
 3.65   0.3185   1018.5430   1153.2629 -11.43     264.8307     1.024     18.90559     0.928      1.865     77.67271  21.9926        799
 6.41   0.7125   1252.5984   1087.1168  72.04     118.4088     0.947     18.90559     0.671      2.644      77.6903  22.8665        800
 4.88   0.2588   1184.2291    312.3769  -4.81     326.0436     0.955     18.90559     0.906      4.017     77.69909  21.7668        801
 4.38   0.2181   1203.2086   1215.9971 -46.57     386.7386     1.081     18.90559     1.040      2.191     77.66393  21.5815        802
 3.50   0.2964   1261.4006    214.4516 -30.80     284.8402     1.011     18.90559     0.985      2.098     77.74303  21.9135        803
 5.10   0.2473   1220.3372   1429.9238 -84.30     341.0408     1.241     18.90559     1.166      3.879     77.64633  21.7180        804
 4.24   0.0511   1211.8528   1427.9130  72.05     1651.518     2.884     18.90559     2.287      7.081     77.63754  20.0053        805
 7.06   0.6677   1086.4921   1010.4984 -44.40     126.2407     0.501     18.90559     0.499      2.211     77.61994  22.7970        806
 4.41   0.0421   1194.0449    122.4260 -77.15      2003.76     2.421     18.90559     1.984      6.429     77.72546  19.7954        807
 3.89   0.0138   1171.4908    756.1340 -51.46     6117.659     3.866     18.90559     3.757      8.043     77.66393  18.5835        808
 6.93   0.1317   1194.9761   1051.7767  26.54     640.6724     1.358     18.90559     1.086      7.233     77.70788  21.0334        809
 3.50   0.0282   1233.3156    303.1268  10.70     2987.907     1.539     18.90559     1.496      2.880     77.63754  19.3616        810
 5.49   0.2821   1209.7424    827.6857  20.32     298.9719     1.355     18.90559     0.992      2.268     77.66393  21.8609        811
 5.19   0.2534   1209.4709   1414.3469   8.04     332.7796     1.389     18.90559     0.977      4.189     77.65513  21.7446        812
 3.55   0.0524   1206.7057    837.2629 -23.02     1609.141     1.473     18.90559     1.408      2.699     77.65513  20.0335        813
 3.50   0.0710   1200.0442   1440.7319  64.16     1188.237     1.865     18.90559     1.674      3.743     77.67271  20.3627        814
 3.50   0.0501   1200.7561    337.4187 -18.04     1682.795     1.454     18.90559     1.439      2.902     77.69909  19.9849        815
 5.57   1.1740   1197.0143    410.9902   3.15     71.83602     0.615     18.90559     0.613      3.091     77.65513  23.4091        816
 7.37   0.3449   1186.0320   1233.0010  45.53     244.6335     0.915     18.90559     0.530      3.848     77.68151  22.0787        817
 5.96   0.1533   1181.9125    672.2666 -38.80     549.9442     1.337     18.90559     1.252      4.386     77.65513  21.1992        818
 3.50   0.1475   1180.7084    174.5835  42.19     571.9173     1.217     18.90559     1.137      3.049      77.6903  21.1567        819
 5.48   0.7181   1222.1429    828.8300  43.66     117.5303     0.817     18.90559     0.666      2.500     77.71667  22.8746        820
 8.16   0.2331   1187.8943    935.4072 -48.99     361.8821     0.997     18.90559     0.748      5.853     77.67271  21.6536        821
 4.40   0.7752   1195.9845   1332.0293 -26.05     108.8715     0.791     18.90559     0.777      1.167     77.71667  22.9577        822
 6.16   0.4453   1208.4907   1453.4929 -44.90     189.2975     0.505     18.90559     0.495      2.184     77.61994  22.3571        823
 7.42   0.3317   1185.2233    389.9972   0.12     254.3768     0.692     18.90559     0.416      2.848      77.6903  22.0363        824
 5.91   0.3672   1179.3308   1402.4528 -22.60     229.6919     0.953     18.90559     0.825      2.835     77.65513  22.1471        825
 7.60   0.2610   1178.1711   1306.1359  44.87     323.2501     0.759     18.90559     0.567      3.745      77.6903  21.7762        826
 5.29   0.3491   1146.7434    110.7038   6.37     241.4688     1.044     18.90559     0.920      2.981     77.61994  22.0928        827
 3.69   0.0368   1119.2843    328.1035  59.93     2288.561     2.997     18.90559     1.855      5.343     77.59354  19.6511        828
 3.50   0.0017   1164.2914   1298.2402 -60.14     50933.59     1.971     18.90559     1.917      3.014     77.62874  16.2825        829
 3.70   0.0543   1150.1506     97.7526 -18.30     1553.911     1.468     18.90559     1.382      2.801     77.71667  20.0714        830
 5.51   0.3324   1157.1002    184.2888 -70.77     253.5011     1.252     18.90559     0.910      5.185     77.59354  22.0400        831
 5.05   0.2169   1155.2443    565.8426 -72.71     389.1881     1.371     18.90559     1.108      4.245     77.71667  21.5746        832
 8.18   0.3417   1166.4851    637.9879  -0.63     246.9362     0.781     18.90559     0.500      4.686      77.6903  22.0685        833
 0.00  99.0000   1166.0668   1598.8599  81.41    -4419.483     1.399     18.90559     0.944      8.394     62.07352  99.0000        834
 3.99   0.0722   1152.6777   1351.5503 -11.80      1168.23     1.660     18.90559     1.613      3.942     77.63754  20.3812        835
 6.36   0.8316   1155.5432    349.9644 -61.96     101.4788     1.000     18.90559     0.667      3.234     77.70788  23.0341        836
 4.16   0.1235   1160.7136    886.1776  -5.98     683.2957     1.328     18.90559     1.227      3.432     77.68151  20.9635        837
 7.46   0.2123   1156.7861    969.3268 -20.66     397.7584     0.978     18.90559     0.847      4.928     77.75181  21.5510        838
 3.50   0.0142   1156.7560    234.6834 -79.93     5940.949     1.671     18.90559     1.666      2.850     77.66393  18.6154        839
 6.77   0.3878   1154.0000   1123.9731   0.00     217.4963     0.860     18.90559     0.289      3.263     77.67271  22.2064        840
 3.50   0.0085   1218.0081   1193.4810  65.18     9898.389     1.997     18.90559     1.875      3.260     77.68151  18.0611        841
 7.48   0.5648   1205.5585    721.4760  38.68     149.3501     0.504     18.90559     0.491      2.935     77.67271  22.6145        842
 6.43   9.5280   1145.6858    793.0436  -9.70     8.853121     0.733     18.90559     0.663      4.030     77.67271  25.6823        843
 3.57   0.1150   1129.1498    217.8572  -3.65     733.6099     1.557     18.90559     1.367      2.869     77.68151  20.8863        844
 4.30   0.4502   1171.6689    231.1080 -63.51     187.2947     1.079     18.90559     0.977      1.779     77.63754  22.3687        845
 4.68   0.3752   1144.4302    768.3583 -59.72     224.9893     1.570     18.90559     1.123      3.988     77.72546  22.1696        846
 0.00  99.0000   1176.0365   1597.4617 -85.35    -4069.412     1.045     18.90559     0.936   -717.599     67.30968  99.0000        847
 3.50   0.0027   1137.4620    146.3127 -54.99     31633.06     1.912     18.90559     1.893      2.954     77.64633  16.7996        848
 5.35   0.2371   1078.2360    920.6154 -32.32     355.8835     0.959     18.90559     0.940      2.913     77.70788  21.6717        849
 4.59   0.1968   1130.0065    357.5856 -42.74      428.581     1.180     18.90559     0.984      3.298     77.64633  21.4699        850
 4.86   0.2342   1132.8885    605.9141 -11.29     360.0634     1.313     18.90559     1.173      3.818     77.63754  21.6591        851
 3.50   0.0051   1128.9320    181.7648 -53.97     16549.33     1.817     18.90559     1.770      2.929     77.69909  17.5030        852
 6.05   0.6555   1127.2538    836.0876  74.99     128.6107     1.023     18.90559     0.750      5.052     77.62874  22.7768        853
 5.53   0.1059   1104.5703    677.0995  39.04     795.7891     2.169     18.90559     1.755      7.725     77.61994  20.7980        854
 6.54   0.8500   1125.1917    164.8132 -46.07     99.21878     0.742     18.90559     0.565      2.681     77.65513  23.0585        855
 7.26   0.3009   1120.9564    739.5446   0.88     280.3382     1.058     18.90559     0.785      5.318     77.68151  21.9308        856
 5.82   0.2646   1119.8595    638.3765  23.52     319.0408     1.121     18.90559     0.835      4.088     77.72546  21.7904        857
 5.18   0.2790   1115.5903   1168.8553 -34.12     302.5732     1.356     18.90559     0.982      4.170     77.73424  21.8479        858
 3.50   0.0118   1106.4481    426.3384  -9.29     7155.012     1.716     18.90559     1.686      2.943     77.66393  18.4135        859
 6.93   0.4311   1116.5751    663.2375 -57.89     195.7355     1.025     18.90559     0.796      2.853     77.69909  22.3208        860
 6.38   0.8311   1107.9810   1122.0045 -62.43     101.4932     0.791     18.90559     0.782      1.833     77.67271  23.0339        861
 5.17   0.1032   1113.1106    672.6693 -71.48     817.2877     1.311     18.90559     1.310      4.485     77.62874  20.7691        862
 8.70   0.5237   1114.6976    505.6875 -44.41     160.9164     0.554     18.90559     0.344      2.231     77.60235  22.5335        863
 5.24   0.0553   1110.1713    477.9135  27.23     1526.305     3.267     18.90559     2.221      8.023     77.68151  20.0909        864
 3.50   0.0078   1103.5300    750.2573 -87.83     10797.86     1.778     18.90559     1.761      2.953     77.65513  17.9667        865
 3.77   0.1722   1093.7592   1134.8015  40.97     489.9487     1.145     18.90559     1.081      2.906     77.70788  21.3246        866
 6.69   6.5137   1083.5940    844.8043  19.73     12.94852     0.765     18.90559     0.444      1.931     77.66393  25.2694        867
 5.81   0.6987   1076.9998    466.9958 -37.55     120.7614     0.792     18.90559     0.772      0.261      77.6903  22.8452        868
 3.50   0.0028   1093.8246    776.4846  83.71     30576.52     1.916     18.90559     1.881      2.958     77.68151  16.8365        869
 3.68   0.1661   1078.3486    328.4358 -38.53     508.1493     1.267     18.90559     1.239      2.610     77.69909  21.2850        870
 4.89   0.0949   1089.8680    466.5598 -61.42     888.8654     2.769     18.90559     1.373      6.549      77.6903  20.6779        871
 6.19   0.1759   1091.9058    427.6240  27.34     479.4776     2.152     18.90559     1.530      5.600     77.66393  21.3481        872
 5.08   0.2881   1087.3275    395.1394  67.72     292.7027     1.334     18.90559     1.094      2.820     77.65513  21.8839        873
 4.47   0.0775   1059.0112    725.3658  25.60     1088.801     2.079     18.90559     1.759      5.079     77.71667  20.4576        874
 3.81   0.1926   1085.5021   1451.3997  65.38     437.8858     1.515     18.90559     1.213      3.875     77.65513  21.4466        875
 3.50   0.0263   1088.2401    640.8350  86.91     3209.559     1.566     18.90559     1.534      2.931     77.71667  19.2839        876
 3.50   0.0002   1022.7267     48.6201 -35.71     474954.4     2.597     18.90559     2.408      3.090     77.72546  13.8584        877
 3.50   0.0025   1079.0282    510.4786 -32.38     33702.97     1.914     18.90559     1.898      2.949     77.67271  16.7308        878
 4.25   0.1251   1062.2235      5.4637 -29.00     635.9575     1.246     18.90559     1.180      3.490     73.23779  21.0414        879
 3.50   0.0085   1080.8505   1146.6935  77.88     9902.836     1.745     18.90559     1.731      3.009     77.62874  18.0606        880
 4.12   0.0437   1071.2167   1217.5026 -70.66     1932.426     2.520     18.90559     2.104      5.604     77.67271  19.8347        881
 4.82   0.1492   1082.6919     41.1963  -8.16     565.1361     1.616     18.90559     1.304      4.465     77.65513  21.1696        882
 4.37   0.2634   1065.7548    567.4888 -62.16       320.17     1.384     18.90559     1.135      2.941     77.64633  21.7865        883
 5.51   0.2562   1079.3701     51.4391 -43.55     329.4196     1.041     18.90559     0.920      4.695     77.70788  21.7556        884
 4.63   0.4958   1016.3798    199.5536  42.36     170.2135     1.080     18.90559     0.949      2.649     77.70788  22.4725        885
 4.14   0.1078   1072.2291      5.1956 -71.72     730.5061     1.268     18.90559     1.239      3.006     72.50681  20.8909        886
 3.50   0.0049   1008.8694    812.1041  84.86     17069.46     1.824     18.90559     1.805      2.988     77.65513  17.4694        887
 5.26   0.4911   1073.5564    350.7970  61.84     171.8825     1.464     18.90559     1.131      2.780     77.73424  22.4619        888
 4.81   0.7051   1062.8992    290.3218 -19.83     119.5544     1.087     18.90559     0.971      2.339     77.61994  22.8561        889
 4.43   0.0767   1064.2568   1561.6133 -67.53     1100.913     2.826     18.90559     1.830      6.027     77.71667  20.4456        890
 0.00  99.0000   1064.9015   1595.6791  -0.52    -3733.287     1.193     18.90559     1.117      0.000     72.81696  99.0000        891
 3.50   0.0020   1039.2612    631.3998 -52.15     43007.44     1.943     18.90559     1.906      2.958     77.74303  16.4661        892
 5.96  99.0000   1055.2920    663.0732   5.50    -19.37961     0.739     18.90559     0.675      2.376     77.65513  99.0000        893
 5.25   1.0250   1059.5073    689.4709   0.23     82.26786     1.035     18.90559     0.500      2.100     77.64633  23.2619        894
 4.91   0.1659   1066.9222   1472.6885  13.82      508.233     2.290     18.90559     1.464      6.867     77.61994  21.2848        895
 6.46   0.2651   1046.9856   1157.0267  37.73     318.2796     0.802     18.90559     0.775      2.610      77.6903  21.7930        896
 6.80   0.6414   1047.3096    206.9439  -7.42     131.4617     0.748     18.90559     0.663      3.265     77.64633  22.7530        897
 3.96   0.8768   1051.4053    236.0589  32.58     96.27952     1.280     18.90559     1.083      2.860     77.73424  23.0912        898
 3.50   0.0099   1037.6960    523.7816  82.78     8530.934     1.756     18.90559     1.726      2.906     77.67271  18.2225        899
 4.81   0.3963   1041.5990   1094.1293  31.86     212.9879     1.300     18.90559     0.830      2.440     77.72546  22.2291        900
 5.15   1.0514   1051.6841    399.0921 -82.94      80.1797     1.140     18.90559     0.849      2.832     77.62874  23.2898        901
 7.71   0.3544   1052.5165   1383.5254  56.93     237.8962     0.500     18.90559     0.499      3.000     77.63754  22.1090        902
 6.71   0.8052   1032.5081    491.9370  -0.07     104.7473     0.789     18.90559     0.500      2.497     77.66393  22.9996        903
 5.45   0.5372   1039.6661    465.6006  32.05     157.1334     1.347     18.90559     1.141      2.928     77.73424  22.5593        904
 4.73   0.1277   1036.8652    120.3497 -37.54     660.3723     2.572     18.90559     1.361      5.370     77.67271  21.0005        905
 6.90   0.2930   1025.0353      5.9489 -44.25     275.9768     0.891     18.90559     0.532      4.529     74.44933  21.9478        906
 5.31   0.7848   1032.7021    100.3017  39.23      107.393     0.931     18.90559     0.759      3.688     77.61115  22.9726        907
 5.23   0.4683   1036.4390    240.4637  -4.44     180.1708     0.907     18.90559     0.880      2.595      77.6903  22.4108        908
 3.62   0.4688   1013.5132    451.4057  19.72     179.9401     1.293     18.90559     1.062      2.512     77.68151  22.4122        909
 3.73   0.0490   1029.2534    300.8980  65.90     1721.236     2.833     18.90559     1.955      4.698     77.61115  19.9604        910
 4.77   0.5940    992.2214    498.2236  13.88     142.0654     0.950     18.90559     0.845      3.527     77.70788  22.6688        911
 3.50   0.0043   1024.8685   1378.5450 -82.84     19817.37     1.908     18.90559     1.781      3.062     77.65513  17.3074        912
 6.67   0.3666   1024.2909    126.9758   2.36     230.0979     0.735     18.90559     0.678      4.254     77.67271  22.1452        913
 6.46   9.7840   1031.4546   1166.4862  30.61     8.619499     0.501     18.90559     0.497      2.894     77.65513  25.7113        914
 3.50   0.0356   1010.2822    343.0762 -25.98      2369.13     1.542     18.90559     1.500      2.860     77.65513  19.6135        915
 5.39   0.3120   1028.5204   1033.8624  49.53     270.2108     0.858     18.90559     0.665      3.139     77.63754  21.9707        916
 5.72   0.3640   1010.0002    266.0419  37.06     231.8385     1.151     18.90559     1.135      2.782     77.70788  22.1370        917
 7.25  99.0000   1008.5160    188.9674   0.83    -32.39783     0.782     18.90559     0.500      4.694      77.6903  99.0000        918
 6.09   0.2143   1025.4962   1265.4888 -34.41     393.3466     0.938     18.90559     0.561      3.848     77.60235  21.5631        919
 4.83  99.0000    991.4347    344.4879 -26.49    -67.73473     0.908     18.90559     0.880      0.691     77.68151  99.0000        920
 3.50   0.3810   1003.3541   1236.5841  39.67     221.4734     1.130     18.90559     0.769      2.137     77.69909  22.1867        921
 4.80   0.1751   1020.2845   1267.2625  45.75     481.6116     2.403     18.90559     0.986      5.733     77.64633  21.3433        922
 3.50   0.0296   1000.7197    541.0186  31.04     2854.146     1.581     18.90559     1.571      3.010     77.70788  19.4113        923
 3.50   0.0703   1000.5585   1554.0790 -38.51     1199.832     1.361     18.90559     1.359      2.887     77.67271  20.3522        924
 3.68   0.0868    998.8989   1272.4159 -27.00     971.3984     1.391     18.90559     1.252      3.095     77.66393  20.5815        925
 5.61   0.2817   1042.1692    808.1451 -29.58     299.5773     0.877     18.90559     0.838      3.094     77.71667  21.8587        926
 7.01   0.4124    998.5260   1439.5573 -49.47     204.5141     0.506     18.90559     0.490      2.616     77.66393  22.2732        927
