#   1 KRON_RADIUS            Kron apertures in units of A or B                         
#   2 MAGERR_APER            RMS error vector for fixed aperture mag.                   [mag]
#   3 Y_IMAGE                Object position along y                                    [pixel]
#   4 X_IMAGE                Object position along x                                    [pixel]
#   5 THETA_IMAGE            Position angle (CCW/x)                                     [deg]
#   6 FLUX_APER              Flux vector within fixed circular aperture(s)              [count]
#   7 A_IMAGE                Profile RMS along major axis                               [pixel]
#   8 B_IMAGE                Profile RMS along minor axis                               [pixel]
#   9 FLUX_RADIUS            Fraction-of-light radii                                    [pixel]
#  10 FLUXERR_APER           RMS error vector for aperture flux(es)                     [count]
#  11 MAG_APER               Fixed aperture magnitude vector                            [mag]
#  12 NUMBER                 Running object number                                     
 3.50   0.0002    181.0222   1105.8365 -40.31     909969.9     6.539     5.885      9.517     137.5308  13.1524          1
 3.68   0.0058     52.4050     61.7681  -2.27     25561.59     6.359     5.786     15.849     137.5464  17.0310          2
 3.50   0.0035     58.9521   1076.9418  81.32     42092.17     2.093     1.972      5.283     137.4997  16.4895          3
 3.50   0.0363     15.7237    983.4587 -87.90     4110.651     4.509     1.979      8.715     137.4686  19.0152          4
 3.50   0.0422     17.0120     89.4810 -42.63     3539.676     1.663     1.619      4.679     137.5464  19.1776          5
 3.50   0.0164     13.8143   1444.2383 -42.28     9136.348     1.721     1.697      4.657     137.5619  18.1481          6
 3.64   0.7463     16.2665    382.9738  86.43     200.1189     1.231     1.191      3.487     137.5308  22.2968          7
 4.95   0.9148     13.1674    839.5089 -76.27     163.1748     1.479     0.949      6.485      137.453  22.5184          8
 3.64  99.0000      9.2333   1182.3411 -70.45     -68.6543     1.026     0.964      2.668     137.5464  99.0000          9
 4.21  99.0000      5.6605   1467.9125   8.54    -104.2177     1.152     0.903      2.484     130.3748  99.0000         10
 4.51   0.4147      3.6078    143.2684  59.55      313.155     1.696     1.490      6.300     119.5713  21.8106         11
 5.88   0.3652      3.6479    183.5916 -38.45     356.5522     1.080     0.962      5.657      119.893  21.6697         12
 6.99  99.0000      2.5114    843.4935  44.82    -14.87356     0.507     0.493      3.041      112.376  99.0000         13
 6.37   0.5466      1.8622    302.3619  20.33     214.3566     0.906     0.677      5.436      107.888  22.2222         14
 3.91   0.2441     23.8545    365.4416  -3.18     611.6426     1.390     1.345      4.746     137.4997  21.0838         15
 0.00  99.0000     14.8386   1561.6169 -19.92    -150.5703     0.905     0.686     -4.694     137.5619  99.0000         16
 4.67  99.0000     17.1879   1213.4882  -0.33    -98.57616     0.921     0.725      2.937     137.5308  99.0000         17
 0.00   1.2104     15.4944    192.9995 -32.51     123.3421     0.786     0.318      0.000     137.4686  22.8222         18
 4.18   0.3465     33.0747   1108.5681  65.68     430.9472     2.036     1.213      5.271     137.4841  21.4639         19
 3.82   1.1780     23.0219    381.4543   6.25     126.8329     1.319     1.170      4.460     137.5775  22.7919         20
 5.46  99.0000     22.9778    696.8055  -3.26    -86.22621     0.886     0.748      1.999     137.4997  99.0000         21
 0.00  99.0000     20.6041    212.2110 -18.94    -77.67971     0.744     0.450      4.465      137.453  99.0000         22
 0.00   0.5127     23.9324   1451.8411 -46.75     291.3084     0.843     0.652      0.000     137.5153  21.8891         23
 4.88   0.3102     32.3874    325.0325 -26.40     481.5577     1.486     1.262      5.062     137.5308  21.3434         24
 0.00   7.8781     26.2151    701.0262  -0.99     18.95653     0.703     0.411     -1.415     137.5153  24.8556         25
 6.50   1.1025     33.5743     14.7714 -89.15     135.4758     0.947     0.712      3.968     137.5308  22.7203         26
 3.57   1.6926     37.0450   1519.9745 -74.77     88.27402     1.093     1.076      2.298     137.5775  23.1854         27
 4.28   0.3710     38.0067   1169.0526  23.11     402.8028     1.223     1.198      4.898     137.6241  21.5373         28
 3.71   0.5479     41.6028    913.7512 -64.32     272.7413     1.133     1.039      3.970     137.6086  21.9606         29
 3.50   0.0037     79.0617    535.8607 -66.40     40183.47     1.966     1.931      5.261     137.4841  16.5399         30
 4.97   1.7972     43.5270    438.5287 -52.86     83.01984     1.481     1.242      2.171     137.3907  23.2520         31
 4.10   1.7149     38.6270   1224.5396 -37.16      87.1034     1.156     0.777      3.244     137.5464  23.1999         32
 4.55   1.2959     49.4868    263.5109  89.83     115.1656     1.455     1.089      2.668     137.4219  22.8967         33
 4.50  13.0071     41.5007    999.9727  -1.62     11.47378     0.790     0.500      2.254     137.4219  25.4007         34
 7.08   1.1215     42.5779    226.7772  19.95     133.1625     0.748     0.450      4.490     137.5153  22.7390         35
 7.84   0.8720     45.7927    473.3825 -71.71     171.1957     0.746     0.449      3.986     137.4686  22.4663         36
 4.11   2.1844     49.4914   1433.9777  -4.26     68.34311     1.069     0.925      2.020     137.4686  23.4633         37
 0.00  99.0000     46.7959   1429.1587  44.33    -331.0814     0.809     0.669      4.852     137.5619  99.0000         38
 5.94   1.4345     46.8517    664.8470 -43.30     104.1453     0.825     0.669      3.658     137.5619  23.0059         39
 6.42   1.0216     50.4846    119.9498   0.88       146.12     0.780     0.500      4.017      137.453  22.6382         40
 3.52   0.0956     74.1052    126.4799 -19.14     1561.378     1.475     1.433      4.230     137.4063  20.0662         41
 7.34   0.6107     57.4917   1240.0228 -32.67     244.4449     0.781     0.319      4.687     137.4686  22.0795         42
 4.98   3.0422     64.9824   1146.2659   9.37     49.10138     1.374     1.141      1.594     137.5464  23.8223         43
 7.06   0.5504     68.4563     17.7707  88.90     271.4025     0.996     0.721      4.888     137.5619  21.9660         44
 0.00  99.0000     66.8790   1414.1798 -28.14    -118.6236     0.963     0.744   -106.922     137.5308  99.0000         45
 0.00  99.0000     65.5014   1514.5054 -45.69    -241.2955     0.501     0.499      0.000     137.3596  99.0000         46
 0.00  99.0000     70.7447   1320.8502 -68.46    -160.6283     0.911     0.682      5.468     137.5153  99.0000         47
 3.50   0.0025    120.9251    787.4896 -59.16     60186.46     2.018     1.992      5.253     137.4063  16.1013         48
 3.90   0.4988     81.3288    419.7149 -76.83     299.1722     1.520     1.278      3.629     137.4063  21.8602         49
 3.94   0.2106     89.6612    375.3916 -19.36     709.5739     2.301     2.014      7.666     137.6086  20.9225         50
 8.71   0.7604     75.8810     80.4187 -26.69     196.4531     1.370     0.840      8.220     137.5464  22.3169         51
 4.79   1.3457     78.7909   1031.8494 -33.64     111.0271     0.892     0.849      4.403     137.5775  22.9364         52
 3.50   0.0006    192.5951    316.2862 -64.39     255801.9     2.878     2.293      5.868     137.4997  14.5302         53
 3.50   0.0711     95.5876     54.3806 -29.57     2100.294     1.614     1.584      4.637     137.4841  19.7443         54
 0.00  99.0000     87.0195   1358.1309 -88.30    -215.0625     0.995     0.847   -204.024      137.593  99.0000         55
 5.84   0.6557     87.4903    757.1628  35.83     227.6303     1.165     1.017      6.609     137.4374  22.1569         56
 6.63   1.1236     82.9746    930.8279  20.66     132.9343     1.160     0.723      3.583     137.5308  22.7409         57
 6.93   1.9132     86.4810    862.1655 -47.77      78.0478     1.108     0.733      3.366     137.4997  23.3191         58
 6.86   1.5545     85.0348   1559.2076  52.97     96.08352     0.930     0.470      2.242     137.5308  23.0934         59
 6.00   1.2820     90.8526   1043.8802  55.00     116.4086     1.397     0.799      5.125     137.4219  22.8850         60
 3.82   0.3482     90.7001    494.0876   0.64     428.3977     1.105     1.019      2.829      137.344  21.4704         61
 4.28   0.3903     97.1019    451.1805 -12.65     382.4008     1.924     1.255      5.587     137.4374  21.5937         62
 5.06   0.4805     94.6267   1074.8350  39.51     310.8576     1.336     1.126      5.713     137.5308  21.8186         63
 7.44  99.0000     85.3500    923.3128 -46.64     -168.684     0.575     0.334      1.155     137.4374  99.0000         64
 0.00  99.0000     87.8495    810.6924 -59.25    -56.16894     0.869     0.590      0.000     137.4219  99.0000         65
 6.33   9.5449     94.0801    387.5246  89.88     15.64093     0.774     0.499      3.748     137.4686  25.0643         66
 4.03   0.0064    233.9082    401.8713 -47.20     23441.38     8.632     7.090     22.276     137.4219  17.1250         67
 6.55   0.5289    101.8555    517.3245  20.24     282.2452     0.933     0.683      5.600      137.453  21.9234         68
 5.90   0.5877    112.7964    268.6332  80.50     254.1784     1.522     1.118      4.594     137.5464  22.0372         69
 4.71   2.1145    107.3404    861.3599  41.75     70.63661     0.979     0.859      5.595     137.5308  23.4274         70
 6.49   0.4402    106.1678   1098.1515 -41.98     339.3582     0.806     0.676      4.257     137.5619  21.7234         71
 0.00  99.0000    106.9845   1420.9861 -44.46    -109.3873     0.881     0.534     -0.299     137.5153  99.0000         72
 7.78   1.1089    106.4694    180.4571 -48.20     134.6089     0.503     0.495      1.832      137.453  22.7273         73
 5.35   0.9630    114.2177    414.3000 -75.12     154.9858     1.174     0.927      3.266     137.4374  22.5743         74
 0.00  99.0000    109.9821   1513.4705   1.43    -381.9824     0.806     0.687      4.839     137.5775  99.0000         75
 3.50   3.8890    116.1276    989.3898 -72.21     38.41819     1.139     0.958      5.665     137.5775  24.0887         76
 4.15  99.0000    116.6369    152.4058  53.02     -111.631     1.006     0.952      2.649     137.5308  99.0000         77
 5.52   0.3390    116.3723     65.2133   7.35     440.6431     1.480     0.950      7.298     137.5308  21.4398         78
 3.50   0.0044    161.4548   1466.8241 -54.44     33822.84     1.934     1.900      5.053     137.5775  16.7270         79
 5.02   0.6282    125.2403    492.5927  -6.86     237.8002     1.464     1.092      5.914     137.5464  22.1095         80
 0.00   3.7940    117.6457    911.6918 -47.04     39.33087     0.575     0.334      0.000     137.4063  24.0632         81
 4.68   0.4490    130.2387    416.2955 -27.12       332.37     1.014     0.997      4.298     137.4063  21.7459         82
 4.35  99.0000    127.1574   1476.9080  43.78    -40.66606     0.822     0.651      3.969     137.3907  99.0000         83
 5.12   0.5700    128.0846    884.0657 -58.07     261.7828     0.780     0.779      4.113     137.4063  22.0051         84
 5.84   0.6034    141.3550    884.3093  52.16     247.3198     2.131     0.964      5.944     137.4219  22.0669         85
 8.30   0.9776    134.6447     97.6783 -46.36     152.6893     0.581     0.330      3.489      137.453  22.5905         86
 5.23   2.6583    145.7969    352.2505 -48.50     56.21772     1.407     1.153      7.202     137.6086  23.6753         87
 0.00  99.0000    138.1987   1599.6450 -72.96    -15.45237     0.752     0.444      4.510     104.0517  99.0000         88
 3.50   0.0195    169.2841    875.6372 -78.34     7674.871     1.768     1.723      5.008     137.4997  18.3373         89
 3.99  99.0000    150.7436   1278.8497  28.32    -68.21358     1.078     1.029      3.827     137.4997  99.0000         90
 4.29   0.3275    164.2198   1444.2903  61.79     455.9114     1.450     1.305      5.281     137.4997  21.4028         91
 3.87   1.0243    154.5441     80.6298 -48.01     145.8547     1.066     0.917      3.426     137.5619  22.6402         92
 6.00  99.0000    155.1815   1578.5652   5.70    -197.8996     0.898     0.727      1.040     137.5308  99.0000         93
 0.00  99.0000    154.5055    822.5117  46.03    -86.12572     0.501     0.498      0.000     137.3752  99.0000         94
 3.50   0.3343    165.7383    102.5978 -37.77     447.0784     1.311     1.165      3.739     137.6086  21.4240         95
 0.00  99.0000    165.0086    574.7706  86.48    -5.700733     1.251     0.963      0.793     137.5308  99.0000         96
 7.70   0.3391    165.8022   1054.6754 -60.40     440.5015     1.211     1.000      7.269     137.5619  21.4401         97
 8.26   0.7588    159.3821    491.2143  17.93     196.8147     0.756     0.448      3.240     137.5153  22.3149         98
 0.00   4.3835    164.3577   1196.5062  18.24     34.03844     0.945     0.817      0.000     137.3907  24.2201         99
 4.96   1.3447    167.8831    649.7219  36.86     110.9979     1.237     1.028      7.421     137.4374  22.9367        100
 5.03   1.8519    168.4620   1367.5079  -4.70     80.61386     1.259     0.968      2.983     137.4686  23.2840        101
 6.77   0.6254    174.8292   1198.9620 -74.73     238.8358     1.100     0.850      5.655     137.5464  22.1048        102
 4.54   0.3276    179.3327    573.3319  24.33     455.5987     1.714     1.330      4.337     137.4219  21.4035        103
 5.66   1.2941    185.8885   1353.4348 -69.02     115.3768     1.580     1.377      2.458     137.4841  22.8947        104
 4.12   0.2105    191.7545   1349.0994  -8.69     708.5701     1.394     1.366      4.367     137.3596  20.9240        105
 6.94   0.3868    189.5625   1026.0391  51.22     386.3188     1.298     1.107      7.785     137.5775  21.5826        106
 8.39  99.0000    182.3929     58.7790 -19.01    -218.4602     0.766     0.444      3.976     137.4997  99.0000        107
 3.61   0.0450    209.8589    826.0873  -7.87     3316.948     4.937     2.269     10.790      137.453  19.2482        108
 3.95   0.0564    229.0334    560.6039 -26.64     2647.986     3.951     3.606     10.893     137.5464  19.4927        109
 0.00  99.0000    186.4370    834.3389  -8.75    -110.6243     0.995     0.478      3.425     137.5308  99.0000        110
 5.73   0.5558    194.2279    266.1493  -2.74     268.7809     1.598     1.112      4.155     137.5619  21.9765        111
 3.50   0.0013    258.9285    995.8074 -39.84     113333.5     2.157     2.062      5.357     137.5775  15.4141        112
 5.33   0.1590    207.8602    348.2912  42.92     938.6866     2.172     1.551      8.729     137.4374  20.6187        113
 3.50   0.0910    205.7459    547.4401  30.29     1641.525     1.440     1.435      4.674     137.4997  20.0119        114
 7.23   0.8108    193.8830   1158.3497  19.93     184.1066     0.901     0.693      2.530      137.453  22.3873        115
 4.67   0.3745    202.5069    249.0628 -82.07     398.5854     1.245     1.125      5.322      137.453  21.5487        116
 6.30   0.7701    195.0164    447.8040  -1.57     193.8468     0.905     0.757      4.427     137.4686  22.3314        117
 3.50   0.1092    211.3949   1304.6354 -22.74     1367.827     1.484     1.447      4.302     137.5308  20.2099        118
 3.50   0.0019    264.9597     65.7597 -32.49     76829.68     2.095     2.035      5.389     137.5775  15.8362        119
 4.14   0.5800    209.9293    683.1187 -66.62     257.3205     1.588     1.287      4.349     137.4219  22.0238        120
 5.97  99.0000    205.0531    940.3129  79.60    -21.77141     0.730     0.683      3.146     137.4219  99.0000        121
 6.18   7.8123    204.7234    935.2993 -17.45     19.09678     1.044     0.660      6.262     137.3752  24.8476        122
 5.76   0.9258    204.9661    182.0299 -44.92     161.3318     0.793     0.788      2.241     137.5308  22.5307        123
 6.06   0.1290    221.6865    344.0318  25.49     1157.348     2.076     1.969     10.567     137.5153  20.3913        124
 3.64   3.7248    208.3053   1224.1161  17.48     40.04424     1.017     0.915      3.567      137.344  24.0436        125
 3.50   0.0894    223.2675   1224.5825 -89.29     1671.133     1.447     1.430      3.730     137.5619  19.9925        126
 6.36   3.2987    216.6158    881.3004 -56.94     45.25682     1.809     0.740      0.180     137.4686  23.9108        127
 6.23   0.4780    216.7369    739.7720 -48.77     312.4753     1.484     1.052      5.748     137.5308  21.8130        128
 3.50   0.0005    311.2113    437.7717 -43.93     313287.1     2.528     2.337      5.771     137.5464  14.3101        129
 3.50   0.4524    221.6353    773.3149 -28.64     330.1292     1.304     1.232      3.676     137.5153  21.7533        130
 7.25  99.0000    213.9205    791.8632 -44.17    -19.60363     0.851     0.667      2.720     137.4219  99.0000        131
 8.64   0.3236    220.8395    373.6221  32.45     461.6127     1.683     0.981      7.171     137.5464  21.3893        132
 7.72   0.6497    226.6158    323.3230 -86.04     229.9335     1.792     0.855      9.808     137.5619  22.1460        133
 4.09   0.1178    243.0104    111.1028 -84.61     1267.408     2.358     1.744      5.485      137.453  20.2927        134
 4.02   0.0472    254.5417    611.2194 -43.66     3166.972     2.738     2.260      6.867     137.5619  19.2984        135
 0.00  99.0000    220.6618   1401.3055  46.61    -279.0021     0.567     0.338      0.000     137.4374  99.0000        136
 6.32   0.6048    229.1916    546.3879 -64.50     246.7958     1.265     1.034      6.534      137.453  22.0692        137
 4.00   0.3243    238.3424    837.3022  -9.76      460.132     1.711     1.461      6.267     137.4063  21.3928        138
 3.60  99.0000    232.0458   1551.7197 -75.01    -120.6234     0.719     0.670      0.823      137.453  99.0000        139
 5.39  99.0000    238.9705   1477.4504 -68.12    -79.57638     1.289     0.924      1.000     137.5619  99.0000        140
 5.53   0.2659    251.0242   1371.4264  88.51     561.7942     1.875     1.660      4.542     137.5308  21.1761        141
 5.00   0.4374    249.4536    105.7782 -15.15     341.5218     1.367     1.268      6.435     137.5619  21.7165        142
 6.38   3.9854    247.8134   1412.9871  26.31     37.46408     1.222     0.976      1.111     137.4841  24.1160        143
 3.56  99.0000    252.4222   1351.3031 -18.77    -13.91923     1.077     1.070      3.588      137.453  99.0000        144
 4.93   0.9166    248.0549    561.1425 -45.10     162.8686     0.823     0.656      3.615     137.4686  22.5204        145
 0.00  99.0000    250.4485   1549.2814 -84.04      -306.29     0.998     0.957      0.000      137.453  99.0000        146
 3.50   0.0084    286.7189   1484.9951 -39.03     17760.78     1.874     1.841      4.879     137.5153  17.4263        147
 6.17   0.7632    248.9496    149.9729  73.74     195.7499     0.793     0.788      1.343     137.5619  22.3207        148
 6.83  99.0000    252.4687    693.5012  40.35    -52.97215     0.503     0.496      2.522      137.453  99.0000        149
 3.50   0.0403    281.0660   1520.9102  76.99     3708.601     1.639     1.588      4.682     137.4686  19.1270        150
 6.41   0.4264    264.1126    722.8807 -57.13     349.9769     1.243     0.947      4.416     137.4219  21.6899        151
 3.50   0.0005    350.4285    889.1489 -49.01     277271.2     2.387     2.221      5.611     137.5619  14.4427        152
 3.50   0.0028    317.8304    903.7720 -63.35     53022.32     2.038     1.981      5.274     137.5464  16.2389        153
 5.46   3.1184    264.5226    122.0393  -1.21     47.87991     1.080     0.952      4.829     137.4841  23.8496        154
 4.90   1.1839    270.1254   1272.1100   7.57     126.0409     1.506     1.316      2.363     137.4063  22.7987        155
 6.48   0.4719    261.2282   1207.9971   0.13     316.3678     0.689     0.420      3.000     137.4841  21.7995        156
 0.00  99.0000    267.1037   1386.8289  48.46    -38.25015     0.839     0.668      0.000     137.4374  99.0000        157
 7.58   2.2232    268.0160    368.0384   0.94     67.19599     1.012     0.733      6.071     137.5619  23.4816        158
 3.50   0.0006    350.4937   1344.3156 -36.91     267492.5     2.394     2.229      5.564     137.3596  14.4817        159
 3.50   0.0112    302.1434    199.9518 -79.73     13343.97     1.813     1.801      5.036     137.5153  17.7368        160
 6.87  99.0000    268.3021   1308.6689  43.48    -181.4187     0.562     0.341      3.374      137.453  99.0000        161
 3.50   0.0957    288.8237    513.3386  27.69     1560.834     1.893     1.834      4.843     137.5619  20.0666        162
 0.00  99.0000    270.4909   1248.9762   1.18     -293.709     0.770     0.500      0.000     137.4686  99.0000        163
 4.38   0.1423    296.6169   1412.0374 -41.70     1049.728     3.597     1.650     13.084     137.5619  20.4973        164
 7.97   1.7539    275.9687   1376.4888  89.22     85.12018     0.794     0.500      4.403     137.4686  23.2249        165
 0.00  99.0000    274.5126   1369.0352   0.02    -137.9658     0.780     0.500      0.000     137.4686  99.0000        166
 3.50   0.1026    293.0799   1326.0524  -7.85     1454.746     1.499     1.464      4.266     137.4374  20.1430        167
 4.57   0.3247    292.5134   1474.2167 -17.53     459.8764     1.626     1.395      3.670     137.5153  21.3934        168
 6.58   1.4451    278.4937    555.5334  -0.01     103.3064     1.063     0.500      1.548     137.4686  23.0147        169
 0.00  99.0000    287.1521    413.4819  13.30    -200.0597     1.036     0.857      6.213     137.4686  99.0000        170
 0.00   2.1646    285.3535    336.7982  67.10     69.03318     0.735     0.659     -8.972      137.593  23.4524        171
 4.92   0.6347    291.3463    246.8294 -26.38     235.3807     1.209     1.045      5.100     137.5619  22.1206        172
 6.45  99.0000    286.9872   1349.7050 -88.74    -182.3696     0.744     0.675      0.110     137.4841  99.0000        173
 3.50   0.1958    301.2831    561.9075  57.68     762.1034     1.420     1.390      3.972     137.4374  20.8450        174
 5.46   0.2755    307.6686     83.4995  76.55     541.6961     1.953     1.350      7.160     137.4374  21.2156        175
 6.42   0.4898    294.5245    885.6899 -11.71     304.6922     0.953     0.939      5.720     137.4063  21.8403        176
 3.50   0.0175    321.1589    695.6109  55.20     8537.736     1.707     1.700      4.794     137.5308  18.2216        177
 3.50   0.0244    345.4642    865.4515  53.74     6123.644     2.524     2.088      6.040     137.4841  18.5825        178
 3.59   0.2568    320.7474    639.8264 -63.05     581.6895     2.503     1.668      5.187     137.5619  21.1383        179
 7.28   1.0620    310.3055    315.7304  75.59     140.5429     1.350     0.931      1.469     137.4374  22.6805        180
 4.10   0.0907    326.5276    593.7271   4.50     1645.463     2.087     1.959      6.751     137.4219  20.0093        181
 3.86   0.5361    308.7935    983.5371  25.15     278.7196     0.966     0.956      4.390      137.593  21.9371        182
 5.26   1.0579    315.9427    225.0871  -1.04     141.1102     1.236     0.852      5.540      137.453  22.6761        183
 6.01  99.0000    312.7872   1494.9622  -1.51    -74.20382     0.688     0.409      2.979     137.5619  99.0000        184
 5.10   0.5452    323.8518    954.0250  24.36     274.0685     1.570     1.202      3.378     137.5775  21.9554        185
 4.55   0.6345    328.4711   1544.5985 -22.93     235.4642     1.198     1.133      4.036     137.5775  22.1202        186
 7.60   0.3886    320.5096    574.5020  44.12     383.9419     0.501     0.499    -21.819     137.3752  21.5893        187
 3.60   0.6976    331.2683     91.5539 -37.81     214.0672     1.251     1.148      3.782     137.4997  22.2236        188
 5.25   0.4741    323.9714    340.2361   1.18     315.0354     0.899     0.741      3.341     137.5308  21.8041        189
 3.50   0.0312    354.8637    430.0891  84.22     4782.479     2.035     1.846      5.436      137.453  18.8509        190
 4.51   0.4424    334.1932   1438.9866 -61.97     337.3076     1.187     1.115      3.208     137.4219  21.7299        191
 7.95   1.5098    328.3133    242.3292 -44.21     98.83405     0.567     0.339      2.515     137.4063  23.0627        192
 7.57   1.0145    335.0217    621.7671  89.09     147.2242     0.704     0.423      1.580     137.5308  22.6301        193
 5.84   0.4264    338.5684    804.0828 -10.93     350.1724     2.019     0.865      7.723     137.4997  21.6893        194
 6.27   1.8129    336.1012    811.3517 -21.42     82.26492     1.121     0.659      3.781     137.3284  23.2620        195
 0.00  99.0000    335.5740    609.2935   7.76    -189.1386     0.983     0.481      0.000     137.4686  99.0000        196
 3.64   0.1612    349.0482     52.9581 -34.75     926.4975     1.397     1.349      3.945     137.5464  20.6329        197
 3.50   0.0162    367.2421    759.4966 -16.46     9209.906     1.788     1.731      4.870     137.3907  18.1394        198
 3.50   0.0451    366.4039    441.0595  60.32     3310.598     1.703     1.614      4.491     137.6086  19.2502        199
 6.04  99.0000    340.0346   1502.2819 -85.56    -214.6101     0.729     0.670      2.960     137.4997  99.0000        200
 3.50   0.0034    394.2231    229.6339 -61.52     44318.28     2.001     1.944      5.286     137.5308  16.4335        201
 7.16   0.6043    349.2558    918.5583 -43.59     247.0602     1.419     1.262      8.512     137.4841  22.0680        202
 5.32   0.3581    347.1980     40.6213 -70.01      416.955     1.034     0.913      5.270     137.4997  21.4998        203
 3.50   0.0988    360.3920   1498.8724 -13.07     1511.609     1.705     1.432      4.001     137.5464  20.1014        204
 4.36   0.3859    374.3014    752.1323  56.57     386.8136     2.498     1.457      6.838      137.453  21.5812        205
 4.77   0.7963    358.7290    531.6100 -31.96     187.6497     1.382     1.241      3.774      137.593  22.3666        206
 3.63   0.9561    359.6933   1032.4904 -13.85     156.0688     1.267     1.224      4.928     137.4063  22.5667        207
 5.23   0.5352    362.5005   1414.1726 -86.10     278.8595     1.351     1.231      5.924     137.4219  21.9365        208
 0.00  99.0000    355.0646   1396.9675  60.64    -39.35684     0.773     0.771   -187.733     137.5308  99.0000        209
 8.72   5.4791    352.5162   1578.9824 -32.66     27.25952     0.781     0.319      4.685     137.5308  24.4612        210
 6.61   5.1330    360.5316    368.4804  79.14     29.07438     0.947     0.897      5.680     137.4219  24.3912        211
 4.38   0.7926    369.5655     69.7675 -54.66     188.4867     1.395     1.220      3.186     137.5619  22.3618        212
 5.83   0.7256    368.2738    208.4582 -81.93     205.7364     1.185     0.992      3.816      137.453  22.2667        213
 3.66   0.2781    371.8491    990.9427 -12.33     536.9158     1.288     1.225      3.921     137.4997  21.2252        214
 3.96   0.5879    372.4417   1082.3573 -12.91     254.0652     1.515     1.457      3.292     137.5308  22.0376        215
 6.83   0.8002    365.1463    940.1025 -44.47     186.4641     0.827     0.666      4.727     137.3907  22.3735        216
 3.50   0.0251    396.2050   1459.7307 -71.23      5959.21     1.701     1.671      4.462     137.5775  18.6120        217
 3.62  12.9094    374.3093     85.4302 -68.26      11.5645     1.049     0.957      2.876     137.4686  25.3922        218
 3.50   0.0212    397.1697    352.8683 -62.71     7053.875     1.731     1.677      4.825     137.5308  18.4289        219
 3.50   0.0037    418.7024    431.5961 -53.88     40781.25     1.960     1.933      5.243     137.4841  16.5238        220
 4.67   0.5530    381.4783     65.5865  33.45     270.1658     1.422     1.131      5.958     137.5619  21.9709        221
 4.31   0.4495    379.1620    123.8833 -45.19     332.2324     1.160     1.102      2.698     137.4997  21.7464        222
 8.58   0.2932    374.0639   1344.7878   1.89     509.5737     0.938     0.750      5.629      137.593  21.2820        223
 6.86   0.4154    381.7127      9.4485  69.49      359.314     1.231     1.120      7.385     137.4374  21.6613        224
 4.83   0.4387    379.1750    510.5343 -33.43     340.4942     1.023     0.805      4.254     137.5308  21.7197        225
 3.50   0.1163    392.8817   1087.1392   6.31     1283.131     1.464     1.452      4.268     137.4219  20.2793        226
 3.50   0.0076    414.6595    835.7791 -87.54     19587.24     1.861     1.824      5.028     137.5464  17.3201        227
 4.67   0.3902    395.7360    625.2922 -84.56      382.659     2.068     1.808      4.833     137.4841  21.5930        228
 4.31   0.9628    388.0979   1194.0056 -35.06     155.0567     1.118     1.051      3.037     137.4686  22.5738        229
 4.90   0.5292    388.7987    259.2574 -22.61      282.418     0.937     0.845      4.241     137.6086  21.9228        230
 3.59   4.5606    395.6325    976.0615 -62.57     32.74625     1.294     1.101      3.220     137.5153  24.2621        231
 5.84   0.3423    402.6347    525.0397  64.46     436.4286     2.007     1.236      4.850     137.5619  21.4502        232
 0.00  99.0000    389.9111   1166.6669  82.68    -2.255093     0.731     0.650      0.000      137.453  99.0000        233
 5.42   0.8979    390.9950     93.6829  -2.17     166.2987     1.145     0.767      4.485     137.4997  22.4978        234
 5.30  99.0000    391.8295    682.1611  45.39    -67.93623     0.806     0.665      2.152     137.5464  99.0000        235
 0.00  99.0000    390.4073   1063.8210 -19.23    -76.68858     0.736     0.453      4.417     137.4997  99.0000        236
 3.50   0.0012    460.3263    806.0084 -44.64     126511.6     2.174     2.083      5.345     137.5619  15.2947        237
 7.62   0.1207    410.8039      1.7281 -86.84     962.2648     2.264     0.559      6.199     106.9919  20.5918        238
 5.59  99.0000    400.5119    810.9987  63.07    -37.22362     0.999     0.673      2.556     137.4997  99.0000        239
 5.11   1.4319    412.4912   1560.8536 -61.91     104.2463     1.786     1.004      2.772      137.453  23.0048        240
 3.52   0.5557    406.1577    280.5831 -61.55     268.7896     1.142     1.014      2.145     137.5308  21.9765        241
 3.50   0.0460    423.2345    924.7849   9.66     3246.456     1.601     1.597      4.584     137.5308  19.2715        242
 6.00   0.3156    420.4319    132.8687 -27.38     473.1693     2.661     1.886     15.483     137.5153  21.3625        243
 3.50   0.0102    436.9875    250.2835  64.68     14661.22     1.841     1.824      5.092     137.5308  17.6346        244
 5.37   0.7237    414.3479    557.6837  74.95     206.2234     1.626     1.253      5.781     137.4219  22.2642        245
 4.53   0.1467    419.8245    157.4588  31.43     1018.642     1.965     1.661      7.658     137.5775  20.5299        246
 3.50   1.2314    418.3754    772.9217 -64.50     121.2827     1.309     1.134      2.739     137.5153  22.8405        247
 4.87   3.0747    417.9241   1202.9960 -69.00     48.58715     1.158     1.150      4.520     137.5619  23.8337        248
 5.67   0.8893    419.0369   1579.2294 -64.75     167.9487     1.083     0.984      3.959     137.5308  22.4871        249
 6.35   1.1124    416.3668    938.8957  38.22     134.1641     1.261     0.727      6.053     137.4219  22.7309        250
 5.72   0.2185    429.8091    717.6165  55.01     683.1824     2.286     1.725      8.846      137.453  20.9637        251
 4.53   0.3210    425.8258   1177.8335  37.28     465.3183     1.797     1.380      6.616     137.5308  21.3806        252
 8.36   0.8988    413.5051    178.4913 -45.92     165.9925     0.501     0.499      0.404     137.3752  22.4998        253
 4.20   0.0378    466.8871    849.0101  22.49     3946.931     8.631     2.429     25.158     137.5153  19.0594        254
 7.63   0.9899    417.3970   1295.2036  17.97     150.8336     0.762     0.451      3.235     137.4841  22.6038        255
 4.71   1.2732    419.9548   1090.9780  44.64     117.3184     0.782     0.763      3.393     137.5464  22.8766        256
 3.50   0.7339    423.3932   1062.3090 -12.89     203.4288     1.067     0.947      3.750     137.4686  22.2790        257
 3.50   0.1194    432.1249   1420.5641 -14.37     1250.029     1.485     1.348      4.009     137.4841  20.3077        258
 3.50   0.2699    433.0948    149.3635  27.67     552.8868     1.303     1.231      4.036     137.4063  21.1934        259
 4.38   0.4766    425.3532    298.3142 -55.62     313.2844     0.976     0.924      3.848     137.4841  21.8102        260
 3.50   0.0327    449.3134     19.5175  79.54     4563.293     1.697     1.618      4.886     137.4219  18.9018        261
 4.28   3.8338    425.8291   1007.1801  45.92     38.95831     0.782     0.684      1.419     137.5308  24.0735        262
 6.46   0.7254    434.7358    118.2145 -14.46     205.8659     1.345     1.271      3.994     137.5153  22.2660        263
 7.60   1.2633    425.6917    239.6654 -43.70     118.1731     0.567     0.339      2.746     137.4686  22.8687        264
 4.11   0.1948    444.1478    120.4551 -35.94     766.5944     1.698     1.528      4.623     137.4841  20.8386        265
 3.50   0.2546    439.0670    303.9563 -83.47     586.4362     1.232     1.225      3.775     137.4997  21.1294        266
 5.59   1.2802    429.2177   1307.1603 -38.83      116.681     0.807     0.673      1.668     137.5464  22.8825        267
 4.53   1.0622    432.5266    404.7667 -70.31     140.5675     0.964     0.910      3.183     137.4841  22.6803        268
 4.73  99.0000    432.8159    351.6668 -60.34     -34.3598     0.947     0.890      0.210     137.5775  99.0000        269
 3.50   0.0293    456.8181     32.7335 -46.68     5105.784     1.680     1.666      4.888     137.5308  18.7798        270
 3.63   0.1690    446.5810    882.2385   5.63     883.9141     2.634     1.650      6.942     137.5619  20.6840        271
 4.13   0.0980    495.3749     81.0525 -72.67     1524.311     2.894     2.604      8.113      137.593  20.0923        272
 0.00   1.3601    437.0200   1380.9813 -37.80     109.8009     0.808     0.779    -42.996     137.5153  22.9485        273
 4.77   1.6662    442.9376    653.5607  68.37     89.62988     1.015     1.000      3.008     137.5153  23.1689        274
 4.62   0.5047    442.8451    172.6565 -62.31     295.8487     1.116     1.013      4.970     137.4997  21.8723        275
 5.99  99.0000    436.5044     52.4720 -49.04    -40.76841     0.502     0.497      3.014     137.4374  99.0000        276
 5.83   0.9007    441.0673    958.0090 -28.05     165.8968     0.791     0.768      3.148      137.593  22.5004        277
 5.57   2.0212    444.5764   1503.9631  -1.95     73.88696     1.086     0.934      2.118     137.5153  23.3786        278
 3.86   0.0112    532.1016    517.1438  27.64     13276.82     5.815     4.781     14.854     137.3752  17.7423        279
 3.50   0.0797    462.7155    466.8858  48.38     1872.451     1.566     1.468      4.418     137.4063  19.8690        280
 3.75   1.6924    452.0206   1531.8784  -2.25     88.25012     1.100     1.075      2.337     137.5308  23.1857        281
 4.64   5.0213    453.4803   1222.8856 -38.14      29.7212     1.148     1.028      5.075     137.4219  24.3673        282
 5.26   0.9038    450.7772   1129.9885 -89.03     165.2164     0.923     0.760      4.512     137.4997  22.5049        283
 3.59   0.2494    460.0517   1094.5823  38.36     598.9396     1.462     1.254      4.491     137.5464  21.1065        284
 3.58   0.1048    470.5653    252.6783  51.79     1425.226     1.802     1.450      4.699     137.4997  20.1653        285
 0.00  99.0000    449.5158   1353.0117   0.90     -282.503     0.774     0.500      0.000     137.5153  99.0000        286
 4.34   0.3660    460.4968    723.4984 -11.52     407.7023     1.812     1.296      6.116     137.4063  21.5241        287
 3.50   0.0696    471.0944    733.2202 -22.49     2144.675     1.539     1.498      4.604     137.4841  19.7216        288
 5.65   0.8626    472.3067   1131.0845  83.07      172.981     2.225     0.835      2.065     137.3907  22.4550        289
 7.38   0.5496    458.1744   1383.8328 -46.10     271.7176     0.754     0.568      4.522     137.4997  21.9647        290
 4.30   0.2135    488.1921    838.0147 -89.19     699.1077     3.059     1.144      4.906     137.4374  20.9386        291
 5.41   0.6186    466.0153   1196.9625  69.90     241.5114     1.187     1.155      4.089     137.5619  22.0927        292
 3.50   0.0518    476.9968    921.4108 -29.52     2880.487     1.554     1.492      4.361     137.4686  19.4013        293
 5.31   1.5027    464.7791    559.6370  29.06     99.41568     0.976     0.941      2.399     137.5619  23.0564        294
 6.72   0.6315    464.5786    127.0419   1.49     236.5469     1.135     0.944      4.940     137.5464  22.1152        295
 4.29   0.0842    495.0847   1185.2677 -27.37     1773.281     3.570     2.495      9.814     137.4374  19.9281        296
 3.79   0.2282    477.1317   1275.4792  28.82     654.1166     1.446     1.376      3.855     137.4219  21.0109        297
 5.98   0.6897    471.8902    780.0573   2.74      216.415     1.088     0.935      5.559     137.4374  22.2118        298
 7.44   0.3419    487.8899    422.9886 -48.30     436.7653     1.701     0.984      8.098     137.4997  21.4494        299
 3.60   0.6802    478.1534    680.9650 -64.90     219.6457     1.461     1.071      3.532     137.5619  22.1957        300
 4.00   0.9183    475.0726   1166.8925   1.25     162.5514     1.114     1.099      2.500      137.453  22.5225        301
 6.34   0.7264    468.3778    662.1902  17.81     205.5782     0.748     0.449      1.535     137.5153  22.2676        302
 3.50   0.1317    483.0456   1069.0903  -3.08       1132.9     1.380     1.345      3.430     137.4219  20.4145        303
 6.47   1.4458    480.0155   1518.1871 -36.50     103.2966     1.487     1.001      8.922     137.5153  23.0148        304
 5.52   0.7318    480.2343   1308.2384   0.78     204.1004     1.206     1.072      2.151     137.5308  22.2754        305
 3.50   0.0145    511.5095   1300.7717 -86.57     10320.86     1.783     1.771      4.733     137.4686  18.0157        306
 4.18   0.1509    503.2634    761.2393  -9.87      989.376     2.289     2.038      8.643     137.5153  20.5616        307
 5.85   0.5702    485.3267    826.9921  67.42     262.0203     0.897     0.684      4.902     137.5619  22.0042        308
 3.78   0.0664    514.5527   1459.6421  24.54     2251.069     4.804     1.835     13.399     137.5464  19.6690        309
 5.00   0.3584    492.2603    572.8713 -26.66     416.5381     1.045     0.854      4.921     137.4686  21.5009        310
 5.07   0.2517    500.9030   1308.7729 -78.62     593.0609     1.327     1.225      5.847     137.4374  21.1173        311
 3.50   0.2429    501.1404    862.1825  21.91      614.752     1.340     1.317      3.984     137.5153  21.0782        312
 4.66   0.4938    494.4830   1419.8359  -6.11     302.4066     1.068     0.948      4.195     137.5153  21.8485        313
 3.71   0.4542    497.0426    364.6630   3.18     328.7759     1.185     1.114      3.612     137.4997  21.7577        314
 3.60   0.0733    512.4128   1308.8362  87.94     2038.528     1.482     1.437      4.574     137.5464  19.7767        315
 3.50   0.0005    586.9171   1314.4430 -43.15     288970.5     2.422     2.258      5.583     137.4686  14.3979        316
 4.29   0.2337    508.9503    162.6882  -5.14     638.7202     2.454     1.217      7.602      137.453  21.0367        317
 7.32   2.1095    504.5137    324.4970  71.03     70.71415     0.916     0.902      4.141     137.3596  23.4262        318
 0.00  12.4814    502.0302    441.3327  14.30     11.96645     0.975     0.750      5.849     137.5308  25.3551        319
 3.92   0.1938    512.9186   1177.8134 -27.30     770.8853     1.342     1.259      4.294     137.5464  20.8325        320
 5.02   0.6642    509.0863    451.9476  35.30     224.7095     1.219     1.128      5.182     137.4374  22.1709        321
 4.32   4.8799    504.1009   1567.6394 -14.11      30.5754     0.954     0.745      0.097     137.3907  24.3366        322
 4.03   0.3936    518.2291    640.3262 -26.69     379.3821     1.532     1.378      3.979     137.4841  21.6023        323
 0.00 108.4653    508.3430    306.9761  -0.24     1.377172     0.744     0.651     -9.472     137.5464  27.7025        324
 4.50   1.1273    517.4140   1517.7860  70.71     132.4729     1.137     1.066      2.033     137.5153  22.7447        325
 4.69   0.3278    519.9241    852.2421   0.04     455.4348     1.235     1.187      4.896     137.4841  21.4039        326
 0.00   0.2815    516.0298    165.1891  53.66     530.7314     0.919     0.470     -0.258     137.5619  21.2378        327
 7.39  99.0000    519.3243    580.9985  -2.84    -68.04334     0.742     0.671      4.143     137.5619  99.0000        328
 6.49   0.3401    527.9760    163.3041  59.16     438.9476     1.193     0.695      5.698     137.4841  21.4440        329
 3.50   0.1079    539.3113    998.3491  74.63     1382.734     1.483     1.429      4.304     137.4374  20.1982        330
 3.50   0.4190    535.1611    402.8271  28.42     356.5634     1.644     1.292      4.938     137.5775  21.6697        331
 3.50   0.0003    630.2494    481.5379 -32.96     512194.2     2.814     2.630      6.004     137.4997  13.7764        332
 3.67   0.4304    543.0117    932.6339 -65.99     347.0315     2.242     0.933      4.522     137.5464  21.6991        333
 4.27  99.0000    530.8337   1565.1139  31.17    -12.53259     0.869     0.842      1.859     137.4997  99.0000        334
 3.50   0.0244    571.8231   1241.3000 -77.75     6127.221     2.038     1.669      4.663     137.4219  18.5818        335
 3.50   0.0701    558.0266   1040.2273  -7.54     2129.799     1.649     1.507      4.752     137.5308  19.7292        336
 4.78   0.5336    545.2867    849.4893  -7.45     279.6797     0.980     0.943      4.510     137.4219  21.9333        337
 5.14   0.1253    573.6470   1335.1353  51.49     1191.777     2.340     1.518      7.266     137.4841  20.3595        338
 3.63   0.0953    570.2410     44.1226  49.86     1566.926     2.383     1.604      6.084     137.4841  20.0624        339
 3.50   0.8661    554.9999    777.1362  23.72     172.5378     1.100     1.075      3.576     137.6086  22.4578        340
 5.14  99.0000    558.2373   1067.7279  74.41    -41.49635     1.376     0.874      2.977     137.5153  99.0000        341
 3.50   0.0172    579.6503    143.1599 -48.59     8696.812     1.725     1.693      4.952     137.5153  18.2016        342
 3.66   0.0356    595.7372    781.1780 -56.39     4199.537     3.984     3.666      9.673     137.5619  18.9920        343
 3.55   0.0938    570.7166   1447.0137  21.20     1592.639     3.129     1.935      6.349     137.5464  20.0447        344
 6.11   0.9168    552.7918    964.5013   0.24     162.8279     0.952     0.725      4.983      137.453  22.5207        345
 3.50   0.0173    581.1983    317.4514  32.75     8642.295     1.792     1.741      5.006     137.6086  18.2084        346
 6.43   2.9811    558.6420   1404.0443  15.36     50.10713     2.178     0.923      4.729     137.5464  23.8003        347
 0.00  99.0000    553.9773    804.0143 -87.40     -67.4093     0.784     0.775      4.704     137.4997  99.0000        348
 4.29   0.2357    563.7604    137.6717 -27.73     633.6074     1.275     1.214      5.188     137.5153  21.0454        349
 3.77   2.3103    562.1314    904.2994  60.07     64.60428     1.031     0.851      4.591     137.4374  23.5243        350
 0.00  99.0000    561.8478    839.1899 -61.35    -76.26943     1.314     0.783    -13.776     137.5775  99.0000        351
 6.36   0.7241    560.0472   1502.5043  89.86      206.032     0.783     0.500      3.848     137.3752  22.2652        352
 0.00   1.5365    563.3165   1168.9200 -73.02     97.14134     0.999     0.744      0.000     137.4374  23.0815        353
 4.40   0.5266    575.2334   1000.2487 -16.34     283.6609     1.684     1.580      3.416     137.5464  21.9180        354
 0.00  99.0000    566.4789   1114.5490  65.40    -184.6803     0.909     0.900      0.000     137.4374  99.0000        355
 6.85   0.2668    564.9891   1249.5447 -27.72     560.0692     1.041     0.670      5.844      137.593  21.1794        356
 5.70   1.8860    565.9993    630.5061  -2.49     79.15879     0.992     0.772      3.842     137.4686  23.3038        357
 4.81  99.0000    569.1726    112.1811 -50.32    -30.30414     0.911     0.851      4.195     137.5308  99.0000        358
 5.94   0.5633    577.0299    737.8967  35.30     264.9545     1.383     1.152      7.679     137.4219  21.9921        359
 0.00   4.0229    569.5020   1108.5065  45.12     37.08915     0.504     0.496      0.000     137.3907  24.1269        360
 5.95   0.3429    578.3694    677.7878  -3.43     435.6321     1.213     1.122      6.440     137.5619  21.4522        361
 6.66   1.7320    573.9882    548.0839  -0.44      86.2272     0.915     0.752      3.642     137.5153  23.2109        362
 5.35   0.3111    577.6382    843.3677  21.53     480.1742     1.545     0.887      5.287     137.5308  21.3465        363
 3.50   0.3691    583.4961     74.2241 -16.70     404.4731     1.322     1.236      3.507     137.4841  21.5328        364
 6.00   2.3487    582.9614   1099.5001 -50.62     63.52659     1.056     0.924      3.216     137.3907  23.5426        365
 5.52   2.4689    577.8422    695.0611  44.00      60.4903     0.836     0.659      4.115     137.5153  23.5958        366
 8.92   0.4560    577.2536    480.9903   0.47     327.6748     0.699     0.435      4.196      137.593  21.7614        367
 5.47   0.9993    584.4695   1171.3883   9.73      149.507     1.087     0.994      5.694     137.5775  22.6133        368
 4.68  99.0000    581.7790   1485.1768  42.27    -3.871429     0.801     0.663      3.287     137.5308  99.0000        369
 0.00   3.3622    582.6660   1183.9520   4.29      44.4072     0.741     0.674      0.000     137.4841  23.9314        370
 5.32   0.6836    583.8199    209.8069 -42.27     218.3812     0.796     0.686      2.981     137.4686  22.2020        371
 5.23   0.3255    587.5363   1137.9189  -0.67     458.5163     1.053     0.922      4.509     137.4219  21.3966        372
 3.50   0.8072    997.1730    231.6671 -35.31     185.0385     1.149     1.100      3.274     137.5308  22.3818        373
 4.44   0.7057   1598.8207    709.2975   3.07     169.3706     1.146     0.840      4.578     110.0674  22.4779        374
 3.94   0.1582   1596.6750    653.1274 -15.58      849.275     2.061     1.927      6.368     123.7051  20.7274        375
 5.60   0.4029   1599.2190     17.0316   3.57     289.1736     1.619     0.795      2.204     107.2914  21.8971        376
 3.56   0.2586   1593.4586    372.2879  57.98     574.5931     1.640     1.347      5.191     136.8289  21.1516        377
 0.00  99.0000    909.3374   1573.8235 -27.17    -141.5013     1.073     0.876      6.440     137.5619  99.0000        378
 0.00  99.0000    909.6639    758.6678 -45.16    -247.0114     0.578     0.333      0.000     137.4374  99.0000        379
 5.11   1.1593    907.8714      3.6326 -33.39     112.1295     1.219     0.890      4.595     119.6965  22.9257        380
 4.75   0.3185    907.2199    657.8135  39.55     468.7534     1.174     1.115      5.113     137.4841  21.3726        381
 7.19   0.6348    907.8801    259.1469  47.10     235.0816     0.836     0.675      4.336     137.4219  22.1220        382
 3.50   0.0002    880.5359    182.0380 -36.97     913701.9     3.768     3.384      6.648     137.5153  13.1480        383
 3.89   0.3627    903.5399   1313.7987  84.60     412.0787     1.698     1.165      4.335     137.6086  21.5125        384
 5.13   0.5735    903.1458    733.5557  14.18     260.3851     0.975     0.847      2.041     137.5153  22.0110        385
 3.50   0.0261    899.4399    301.0770  73.75     5728.285     1.683     1.667      4.775     137.4841  18.6549        386
 5.35   0.9068    902.6298    120.2576 -59.53     164.7457     0.997     0.787      4.410     137.5619  22.5080        387
 4.04   0.1516    895.2032    537.0064   4.93     984.6986     2.345     1.895      5.743     137.4686  20.5667        388
 5.97   0.6351    899.4494    449.5103 -24.97     235.0013     0.501     0.497      2.077     137.4219  22.1223        389
 5.06   0.7771    898.7358    378.2324 -44.39     192.1875     0.743     0.553      1.908     137.5153  22.3407        390
 4.88   0.4523    896.1893    985.8829 -70.45     330.1939     1.264     1.113      4.754     137.5308  21.7531        391
 4.75   0.0387    877.6211    222.5485  89.23     3857.795     8.409     2.434     16.307     137.5464  19.0842        392
 6.40   3.0016    894.1964   1570.0686 -41.29     49.77576     0.822     0.670      4.461     137.5775  23.8075        393
 3.94   0.5494    892.8959   1424.7267 -18.50      271.652     1.288     1.213      4.567     137.4219  21.9650        394
 3.50   0.0015    879.3774   1591.1613 -62.85     101399.6     2.135     2.017      5.309     137.5464  15.5349        395
 0.00  99.0000    891.3237   1213.3125 -45.58    -139.8326     0.564     0.340      0.000     137.3907  99.0000        396
 4.58   0.1541    887.6108    324.2768  15.54     969.5106     2.254     1.609      7.441      137.593  20.5836        397
 4.03   0.2862    884.7320   1303.1669  74.24     521.9258     2.172     1.403      5.957     137.5464  21.2560        398
 4.08   0.3741    887.7652    679.4688 -39.55     399.2348     1.357     1.101      4.354     137.5308  21.5469        399
 6.93   0.8119    897.5771    727.8093  19.43     183.9458     0.734     0.455      4.404     137.5153  22.3883        400
 3.67   0.2437    884.8380   1498.8048 -24.85     612.8248     1.336     1.281      4.098     137.5153  21.0817        401
 5.28   0.2782    883.8837    337.3351  18.66     536.5296     1.937     1.260      7.951     137.4219  21.2260        402
 8.05   0.4862    882.3992    443.7480 -17.61     307.3392     0.735     0.458      4.409     137.6086  21.8310        403
 4.92   0.1316    877.1025   1175.5532 -13.24     1133.392     2.087     1.979      9.059      137.344  20.4140        404
 3.50   0.3274    878.5626    670.3907 -45.07     456.2006     1.548     1.226      4.923     137.5464  21.4021        405
 3.50   0.2702    876.5951    959.5044 -79.21     552.4888     1.298     1.229      3.772     137.4841  21.1942        406
 3.50   0.0006    858.3438   1222.9988  25.48     252856.6     2.506     2.412      5.725     137.6241  14.5428        407
 4.24   0.1991    875.3625    540.0466 -35.41     750.1186     1.105     1.072      3.954     137.5464  20.8622        408
 3.79   0.1832    866.6870    937.9309  44.80     814.5305     2.483     1.546      7.950     137.4063  20.7727        409
 3.50   0.5539    868.4225    642.1518  64.32     269.6693     1.174     1.094      2.630     137.5464  21.9729        410
 5.74  24.2924    868.9875   1434.7231  86.53     6.151834     0.718     0.689      3.069     137.6086  26.0775        411
 4.18   2.0773    865.7755    453.1805 -42.47     71.90146     1.103     0.916      2.860     137.5308  23.4082        412
 4.05   0.3922    863.9379   1477.7690  55.58     380.8187     0.983     0.882      3.476     137.5153  21.5982        413
 6.78   0.4428    864.8473   1175.9413  16.55     337.2339     1.140     0.950      5.541     137.4997  21.7302        414
 6.14   0.5899    863.4191    353.5639  42.72     253.2328     1.045     0.954      4.298     137.5619  22.0412        415
 6.49   0.8582    863.0830    772.3165  17.58     173.8723     1.061     0.746      6.367     137.4063  22.4494        416
 5.42   0.3254    861.1080    266.5716  30.30     458.8463     1.458     0.973      4.541     137.4686  21.3958        417
 3.76   0.1524    858.6674   1155.9286 -48.65     979.1071     1.409     1.335      4.382     137.4063  20.5729        418
 6.65   0.4606    861.1178    635.1364 -44.46     324.0103     0.833     0.680      5.000     137.4219  21.7736        419
 4.20   0.5386    859.6251   1553.0254  17.27     277.3472     1.099     0.932      4.404     137.5464  21.9424        420
 4.18   0.3552    857.5358   1338.0935 -71.37     420.3145     1.582     1.377      4.405     137.4686  21.4911        421
 7.36   0.3707    857.3162    573.3596 -45.03     402.7696     1.099     0.647      4.103     137.4997  21.5374        422
 4.73   0.3316    854.7966    543.6133 -69.35     450.1924     1.437     1.235      6.164     137.4686  21.4165        423
 9.24   4.2960    854.5144   1428.4879  44.74     34.73962     0.503     0.496      3.019     137.4219  24.1979        424
 6.94   1.0433    854.1335   1346.3152 -20.02     143.0502     0.909     0.683      5.294     137.4219  22.6613        425
 4.58   1.0299    849.9979   1302.0090  42.45     144.9616     0.798     0.763      1.395     137.4686  22.6469        426
 7.12   5.9966    846.8488   1562.1501  45.17     24.91549     0.834     0.674      4.180     137.5775  24.5588        427
 5.92   0.3554    845.6445    359.7645   5.04     420.4363     1.992     1.388      8.944     137.5775  21.4907        428
 3.50   0.2490    843.8990   1062.4214 -47.16     599.2474     1.301     1.216      4.050     137.4219  21.1060        429
 3.67   0.1516    842.4068   1104.7156  21.78     985.0024     1.862     1.499      4.505     137.4997  20.5664        430
 4.98   0.0810    836.8883   1245.4850 -32.05      1843.29     2.491     2.004      9.536     137.4219  19.8860        431
 6.17   2.3060    840.1484    545.8178 -42.72     64.77815     0.754     0.569      3.698     137.5464  23.5214        432
 4.78   0.6118    836.7659    990.3766  -5.11      244.136     1.225     1.117      5.372     137.5308  22.0809        433
 8.14   0.4855    837.4343    898.6921 -58.58     307.4336     0.978     0.551      5.374     137.4374  21.8306        434
 3.52   0.1034    835.5318    297.0812 -64.89     1443.993     1.452     1.419      4.179     137.4219  20.1511        435
 3.95   0.9145    835.7798   1519.0117 -23.38     163.2658     1.097     1.040      4.305     137.4841  22.5178        436
 3.50   0.4537    834.6545    817.6158  -7.21     329.2554     1.254     1.120      3.362     137.5619  21.7562        437
 3.72   0.0609    868.4527   1102.0677 -58.47     2453.108     2.082     1.859      5.607      137.453  19.5757        438
 5.90   0.3826    830.7017    403.0029  -2.39     390.1889     0.734     0.666      4.237     137.4686  21.5718        439
 3.50   0.0256    822.0500    652.7532 -52.62      5829.66     1.701     1.691      4.734     137.5619  18.6359        440
 7.20   0.4721    825.9781    597.2470  88.91     316.3966     0.685     0.431      1.946     137.5464  21.7994        441
 5.28  99.0000    823.8243    673.1552 -46.25    -78.20756     0.749     0.571      1.934     137.5619  99.0000        442
 5.00   0.7951    821.0287    328.9834 -51.85     187.8479     0.788     0.765      0.220     137.5308  22.3655        443
 3.50   0.7091    818.8474   1397.0322 -31.82     210.6569     1.108     1.032      3.962     137.5464  22.2411        444
 3.85   0.4798    818.0057    777.8375 -67.26     311.2862     1.239     0.766      3.709     137.5153  21.8171        445
 0.00  99.0000    817.8771    701.1688  40.94    -93.56316     1.104     1.007      6.622     137.4997  99.0000        446
 0.00   3.6551    818.6559   1574.2931  47.62     40.83494     0.564     0.339      0.000     137.4374  24.0224        447
 4.00   0.6137    814.7400    876.8964  77.42     243.1523     1.579     1.451      3.049     137.4063  22.0853        448
 3.50   0.3424    816.2355    432.0098 -17.05      436.207     1.160     0.868      2.898     137.5308  21.4508        449
 0.00  99.0000    808.9398   1543.1682  66.66     -184.867     1.106     1.010     -3.301     137.5308  99.0000        450
 5.37   1.8413    808.6687    842.8378 -68.45     81.10729     0.893     0.680      2.948     137.5153  23.2773        451
 3.50   0.0283    802.1561   1377.2687 -69.34     5277.542     1.723     1.626      4.636     137.4841  18.7439        452
 3.50   0.0097    797.5828    694.0785 -87.88     15322.59     2.521     1.785      5.743     137.5464  17.5867        453
 3.50   0.0624    799.6658     39.3432 -29.18     2390.723     1.733     1.515      4.558     137.4686  19.6037        454
 7.40   7.9854    800.9561   1595.2843 -83.77      17.7798     0.735     0.666      4.165     130.7353  24.9252        455
 5.69   0.4019    797.9482    177.0328  89.96     371.7228     1.061     0.726      4.988     137.5619  21.6245        456
 4.69   0.3415    793.4384    293.9872 -85.78     437.4733     1.408     1.180      5.131     137.5619  21.4476        457
 5.05   1.1749    788.6844    407.2916  46.63     127.0112     0.932     0.749      3.154     137.4063  22.7904        458
 0.00  99.0000    785.3309   1347.5808  22.57    -78.83366     0.899     0.788      4.219      137.593  99.0000        459
 3.56   0.0675    773.3043   1425.9481 -89.25     2211.861     3.750     2.204      7.520     137.4063  19.6881        460
 0.00   1.8078    780.4772   1265.1068  -1.37     82.55224     0.771     0.499      0.000     137.4219  23.2582        461
 8.48   0.5258    777.2938    475.3512 -42.18     283.8274     0.567     0.338      3.401     137.4063  21.9174        462
 3.96   1.3549    766.9832    138.3622 -60.94     110.2639     1.496     1.333      4.191     137.5619  22.9439        463
 3.67   0.1263    765.5649    390.1940  -2.87     1182.111     1.469     1.420      4.707     137.5308  20.3684        464
 5.43   0.8695    766.4203    928.8621  17.25      171.794     1.177     0.979      6.765     137.5464  22.4625        465
 0.00  99.0000    763.4435    565.8588 -13.47     -73.2962     1.026     0.929      5.918     137.4997  99.0000        466
 6.72   1.5839    762.5083   1570.5126 -45.36     94.20238     0.503     0.496      2.089     137.3907  23.1148        467
 4.22   0.5041    756.6255   1339.8118 -44.25     296.2276     2.002     1.006      6.903     137.4997  21.8709        468
 6.65   0.5945    757.2419    104.2812 -82.72     251.1046     0.918     0.632      4.937     137.4686  22.0504        469
 4.66   0.3018    753.7518    194.1373  70.38     494.7858     2.004     1.746      8.128     137.4841  21.3140        470
 4.80   1.2132    751.5210   1078.7631 -58.73     123.0585     1.015     0.781      3.969     137.4686  22.8247        471
 6.62   1.9608    751.7948    431.6564 -65.66     76.22485     0.990     0.893      2.531     137.6241  23.3448        472
 7.99   0.4267    746.7986    443.8998  61.00     349.7983     0.998     0.758      4.904      137.453  21.6905        473
 7.28   1.3561    746.6627   1108.6885 -46.23     110.0656     0.569     0.337      3.416     137.4374  22.9459        474
 7.69   0.5678    743.7292    839.2839  44.04     262.8263     1.422     1.371      8.534     137.4063  22.0008        475
 3.50   0.1099    741.7888    554.6887 -46.92     1358.852     1.505     1.450      4.230     137.5153  20.2171        476
 6.50   0.7510    745.5015    364.0371  -1.88     198.6655     0.776     0.500      2.374     137.3752  22.3047        477
 3.50   0.0004    723.1733    403.1625 -38.65     351636.4     2.657     2.350      5.787     137.5308  14.1848        478
 4.91  99.0000    738.4103   1271.2405  56.26    -2.745783     1.037     0.800      3.648     137.5308  99.0000        479
 3.76   0.4480    737.0958   1156.6532 -47.58     333.1502     1.281     1.247      4.107     137.4219  21.7434        480
 3.87   0.2491    735.1339    648.1766  23.49     599.5979     1.280     1.262      4.269     137.5464  21.1053        481
 3.50   0.0025    725.6390    846.8148  -4.11     60443.72     2.062     2.033      5.359     137.5619  16.0966        482
 7.17   0.5205    728.8027    751.6425  70.75     287.0016     1.122     0.877      6.277     137.5619  21.9053        483
 3.50   0.1650    726.5377   1176.7671 -12.69     905.1826     1.411     1.372      4.108     137.5153  20.6582        484
 4.66  99.0000    727.9813   1542.4713  -1.07    -180.6029     0.809     0.691      3.419      137.593  99.0000        485
 3.83   0.5008    720.4841   1393.5349   9.72      297.995     1.467     1.242      3.159     137.4219  21.8645        486
 6.38   0.6948    721.2885    260.9367  -8.71     214.8546     0.739     0.673      4.008      137.453  22.2196        487
 0.00   1.6401    740.3921    918.1597  19.20     91.07752     0.761     0.444      4.566     137.5464  23.1515        488
 3.50   0.1536    714.8723    806.8587 -16.74     972.0591     1.451     1.408      4.254      137.453  20.5808        489
 7.29   0.2578    739.9937    370.4539   0.01     579.7761     0.825     0.690      4.951     137.6397  21.1418        490
 3.50   0.1476    708.0434   1162.3575  15.51      1011.46     1.443     1.401      3.967     137.5153  20.5376        491
 5.93  10.0187    709.3591    193.3632  45.70     14.91302     1.026     0.876      2.546     137.5775  25.1161        492
 4.14   0.0958    703.2103   1337.6471 -71.72     1559.832     2.232     1.846      6.506     137.5775  20.0673        493
 5.46   0.3325    706.7255    537.0632  22.78     448.9497     1.109     1.008      5.450     137.4374  21.4195        494
 3.50   0.0671    701.9611    950.9947 -43.79      2225.29     1.639     1.516      4.084     137.5308  19.6815        495
 7.39   1.1772    702.3176    632.3156 -45.10      126.756     0.563     0.341      2.404     137.4063  22.7926        496
 5.80   1.4808    700.5140    649.9135  -0.13     100.7744     0.779     0.500      2.879     137.4063  23.0416        497
 4.32   0.1878    698.0168    581.0302   9.81     795.6151     2.375     1.335      6.048     137.5619  20.7982        498
 6.55   1.1847    696.1909   1199.1677  41.45     126.0599     0.741     0.566      4.061     137.5153  22.7986        499
 5.28   0.5112    695.3126    275.2812 -45.20     291.9539     0.919     0.741      4.487     137.4374  21.8867        500
 4.12   0.3332    690.8043   1212.2382  38.83     448.1861     1.656     1.406      4.490     137.5153  21.4214        501
 4.41   0.3141    685.6290   1212.3180 -31.36     475.4437     1.336     1.159      3.834     137.5153  21.3573        502
 3.54   0.2522    690.9828    314.4811 -89.34     592.3793     1.363     1.269      4.521     137.5619  21.1185        503
 5.58   0.0837    682.1815    470.6699 -71.25     1785.105     3.997     3.773     19.219     137.5775  19.9208        504
 8.13   0.6530    688.3418    666.6924  46.63     228.5175     0.569     0.337      1.894     137.4063  22.1527        505
 3.50   0.0767    684.5341    642.6834 -85.70     1945.036     1.677     1.518      5.003     137.3907  19.8277        506
 3.50   0.4171    686.5600    129.1386 -74.02     358.0399     1.213     1.118      3.492     137.5153  21.6652        507
 7.14   0.8551    686.3936   1043.2445  19.21     174.7144     0.756     0.445      0.223     137.5619  22.4442        508
 4.64   0.0903    680.1719    541.9000 -72.99     1652.644     2.845     2.013      8.307     137.4063  20.0046        509
 6.08   0.3653    684.0917    399.3588  67.60     408.4798     1.243     1.072      6.428     137.3907  21.5221        510
 7.31   0.6686    683.1840   1564.3816  71.56     223.3499     0.750     0.447      3.477     137.5153  22.1775        511
 7.70   0.5794    681.9842    388.5002 -87.74     257.6855     0.807     0.499      4.843     137.4841  22.0223        512
 6.79   0.7633    676.4925    199.9110   0.69     195.4796     0.787     0.500      3.731     137.3907  22.3222        513
 6.35  99.0000    674.9564   1162.9944   2.98    -35.12107     0.792     0.783      4.120     137.5619  99.0000        514
 5.27   0.9344    671.8871    229.7756 -40.14     159.8042     1.169     1.030      5.464     137.4997  22.5410        515
 6.88  99.0000    672.5187    424.4439 -49.40    -36.07462     0.507     0.489      2.955      137.453  99.0000        516
 5.53   0.3090    668.2863   1219.9636 -52.73     483.3023     1.505     1.346      6.556     137.4997  21.3395        517
 7.54   0.4453    668.8893    526.1393  47.57     335.1848     0.840     0.672      4.783      137.453  21.7368        518
 4.82   0.6799    665.7657   1178.5731   3.32     219.6672     0.954     0.918      4.285     137.5308  22.1956        519
 4.90   1.3817    665.4871   1068.5939  69.03      108.074     0.931     0.807      3.327     137.4997  22.9657        520
 6.86   1.4741    661.6160     80.7631  17.24     101.3445     0.744     0.454      1.099     137.5619  23.0355        521
 3.50   0.0025    647.4363   1462.9254 -64.41     59649.91     2.018     1.955      5.156     137.4841  16.1110        522
 3.93   0.3181    653.7332    869.3082 -77.19     469.2071     1.333     1.243      3.400      137.453  21.3716        523
 6.76   0.3634   1533.4886    973.8960 -50.72      410.477     1.369     0.971      6.608     137.3596  21.5168        524
 7.63   0.3767    646.2842   1152.9969   7.20     396.3617     0.748     0.678      4.488     137.4997  21.5548        525
 4.38   0.2324    644.7533    651.3694 -64.65     642.8766     1.230     1.185      4.783     137.5775  21.0297        526
 3.50   0.0158    638.8298    535.1763  50.02     9451.953     1.838     1.771      5.152     137.4997  18.1112        527
 4.27   0.5040    640.3396    274.9371 -42.66     296.2113     1.232     1.077      3.479     137.4686  21.8710        528
 7.94   0.3922    636.8403    551.5649  84.77      380.862     1.262     0.484      4.607     137.5619  21.5981        529
 0.00   3.5652    638.2928    390.9521  -9.02     41.85497     0.744     0.677      0.000     137.4063  23.9956        530
 0.00   3.7249    630.2939    853.7196 -14.08     40.06566     0.980     0.851      0.000     137.4219  24.0431        531
 3.50   0.2526    629.7246    804.6202  19.19     591.3293     1.308     1.237      4.164     137.5619  21.1204        532
 5.71   0.6227    628.1733    940.8096  43.14     239.8248     0.793     0.684      3.624     137.5153  22.1003        533
 7.15  99.0000    625.9575    131.7406 -87.62    -38.97186     0.677     0.438      1.511     137.4997  99.0000        534
 3.50   0.1726    622.6840   1580.3485  20.28     864.7416     1.414     1.383      4.196     137.4219  20.7078        535
 8.00   0.4145    625.4883   1286.4780  45.77     359.9923     0.506     0.493      3.036     137.3907  21.6593        536
 8.68   0.8901    624.0000    341.9937   0.00     167.6965     0.858     0.289      5.035      137.453  22.4887        537
 7.52   0.6640    649.6454   1159.5402 -17.03     224.8657     0.987     0.832      5.920     137.4841  22.1702        538
 4.96   0.3372    617.2538   1150.4204 -12.75     442.9986     2.287     1.393      7.248     137.5464  21.4340        539
 6.66   1.4489    618.5089     93.3388 -32.37     103.0279     1.211     0.851      2.951      137.453  23.0176        540
 3.94   1.4871    615.0223   1233.4691  87.76     100.4564     1.100     0.935      1.529     137.5619  23.0451        541
 0.00  99.0000    615.6664    117.0446  -5.76    -69.44486     0.738     0.663      0.000     137.4841  99.0000        542
 6.09   0.9820    612.8040   1366.5983  39.27     152.0482     1.171     0.988      6.885     137.4841  22.5950        543
 0.00   4.2395    614.2545    288.0167  -0.90      35.2384     0.679     0.435    -27.527     137.5619  24.1825        544
 4.91   0.7829    610.5709    994.0137  -0.22     190.8165     1.148     0.951      2.294     137.5619  22.3485        545
 8.13   0.5473    608.3402   1334.2922 -68.31       272.74     1.306     0.899      5.010     137.4374  21.9606        546
 5.46   2.5371    610.2504    961.5877 -71.92      58.8892     0.706     0.464      1.844     137.5775  23.6249        547
 4.16   0.6336    608.4410    943.8952  30.88     235.5031     1.092     0.996      4.558     137.3907  22.1200        548
 0.00   4.2005    606.6353   1009.8097 -69.38     35.55704     0.873     0.677      5.241     137.5308  24.1727        549
 3.53   0.1614    604.6259    584.8419 -61.11     925.6414     1.443     1.381      4.369      137.593  20.6339        550
 5.81   0.4484   1503.3109   1310.4329  16.06     332.9631     0.983     0.947      3.588     137.4686  21.7440        551
 3.96   0.2719   1545.0631    861.9321  46.11     548.9685     1.840     1.611      6.203      137.453  21.2011        552
 7.45   1.1555    603.2000    511.9024 -30.59     129.1844     1.053     0.647      2.853      137.453  22.7720        553
 6.56   4.6586    601.7997    763.1479  43.14     32.07886     0.823     0.670      4.797     137.6086  24.2845        554
 5.31   2.4898    599.8062   1424.6854  18.29     59.97445     0.989     0.881      5.025     137.4997  23.6051        555
 6.79   0.5647    598.3499    666.8875 -73.86     264.3308     1.018     0.751      5.616     137.4374  21.9946        556
 0.00  99.0000    595.8287   1124.1578 -45.06   -0.7420673     0.754     0.572      4.527     137.5619  99.0000        557
 5.63   0.7414    592.9840    881.1221  89.40     201.4843     1.257     0.890      4.516     137.5464  22.2894        558
 8.67   0.2916    592.3361   1355.7000  46.86     511.8058     0.564     0.340      3.103     137.4374  21.2772        559
 5.13   1.4701   1592.2811   1383.3767 -13.23     101.5753     1.487     1.105      7.567     137.4997  23.0330        560
 5.46   0.7610   1537.7726    504.2819 -81.92     196.2547     1.314     0.918      6.441     137.5153  22.3179        561
 6.43   1.9673   1588.4667   1334.4884  43.34       75.879     0.508     0.491      3.047      137.453  23.3497        562
 7.02   1.7068   1551.2142    131.4193  70.62     87.48835     0.739     0.454      2.723     137.4997  23.1951        563
 6.34  99.0000    914.5125    124.0380 -87.80    -80.48636     0.795     0.699      3.157     137.4841  99.0000        564
 3.56   0.1640   1583.8901   1107.3706  31.05     910.2286     1.439     1.413      4.094     137.4686  20.6521        565
 3.99   0.3635    911.3047    999.6408  25.14     410.4725     1.228     1.183      3.685     137.4063  21.5168        566
 4.90   2.3036   1590.2817    565.3278  11.70     64.77712     1.032     0.899      2.482     137.4063  23.5214        567
 3.50   0.2032    911.7652    836.9797  46.82     735.0831     1.343     1.296      4.013     137.5464  20.8842        568
 3.50   0.0764   1541.5651    652.9879 -80.24     1955.603     1.572     1.520      4.512     137.5464  19.8218        569
 5.36   1.5701   1553.0010   1370.2423 -89.95     95.14986     0.684     0.428      1.022     137.5619  23.1040        570
 4.89   2.0578   1570.4656   1337.0802  49.64     72.52428     0.857     0.675      4.119     137.4219  23.3988        571
 5.76   2.5443    913.6678   1117.9517   2.16     58.68221     1.082     1.049      5.043     137.4841  23.6287        572
 5.56   0.6600   1561.7994    384.6131 -75.58     226.2742     1.476     0.890      3.660     137.5153  22.1634        573
 5.30   0.5760   1584.9180   1068.0917 -36.80     259.1748     1.155     1.083      3.871     137.4686  22.0160        574
 0.00   2.8503    916.5121   1111.4973 -71.08     52.33522     0.937     0.420      0.000     137.3596  23.7530        575
 6.59  99.0000   1585.3274    639.9982   1.63   -0.7234977     0.742     0.664      3.590     137.5775  99.0000        576
 3.50   0.0489   1540.7145    133.3124 -50.71     3050.755     1.564     1.554      4.694     137.4219  19.3390        577
 3.72   0.8634   1580.4880   1412.9047  69.04     172.7696     1.381     1.137      3.378     137.3596  22.4563        578
 0.00  99.0000   1556.4828    736.5074 -43.82    -72.96549     0.503     0.497      0.000      137.453  99.0000        579
 3.87   5.6674   1574.3569   1489.9440   4.25     26.34812     1.022     0.938      6.133     137.4997  24.4981        580
 3.99   0.3894   1514.5411   1545.7484  75.59     383.4098     1.713     1.256      3.733     137.4686  21.5908        581
 3.50   0.0028   1562.5902    302.4592 -49.50      53201.9     1.981     1.944      5.156     137.6086  16.2352        582
 3.55   0.0773   1565.5569     20.1926 -73.30     1931.635     1.533     1.499      4.661     137.5464  19.8352        583
 3.50   0.1031   1569.3970     90.9337 -30.49      1449.86     1.511     1.425      4.057      137.593  20.1467        584
 3.50   0.0097   1551.5663    680.5849 -23.92        15439     4.963     4.156     11.592     137.5308  17.5785        585
 3.67   0.1069   1564.7480    782.9547 -73.93     1397.551     2.173     1.589      5.895     137.5308  20.1866        586
 3.96  99.0000   1561.7164   1564.7347  83.74    -45.40837     1.068     0.926      2.170     137.4063  99.0000        587
 3.50   0.2032   1560.2748    859.8225  73.43     735.2819     1.395     1.346      3.704     137.5464  20.8839        588
 3.50  99.0000   1551.0110   1512.0599  29.59    -249.6568     0.781     0.773      1.679      137.593  99.0000        589
 3.50   0.0028   1557.0215    485.9543 -57.57     52613.72     1.991     1.950      5.181     137.5464  16.2473        590
 3.93   0.5092   1537.6398    261.7019  47.27     293.0587     0.972     0.868      3.504     137.4063  21.8826        591
 0.00  99.0000   1550.4930    350.8476  52.56    -126.0262     0.879     0.671      0.000     137.4063  99.0000        592
 0.00  99.0000   1553.0337   1231.4982  -0.59    -189.1776     0.811     0.695      0.000     137.3752  99.0000        593
 3.68   1.1656   1535.2637   1427.3330 -46.27     128.0566     2.123     1.077     10.889     137.4374  22.7815        594
 6.78  99.0000   1540.4457    328.4951  25.93    -28.71324     0.501     0.496      2.838     137.3907  99.0000        595
 6.09   1.5134   1450.3645   1223.7706 -72.33      98.6802     1.128     0.669      3.934     137.5153  23.0644        596
 4.16   0.8010   1549.9670   1220.5962 -11.51     186.4901     1.264     1.125      4.228     137.5464  22.3734        597
 4.01   3.2203   1522.6630    377.0125  59.76     46.39147     1.735     0.951      4.149     137.5619  23.8839        598
 4.91   1.7676   1534.7495    918.2697 -19.33     84.44903     0.935     0.832      5.612      137.453  23.2335        599
 4.61   0.8029   1518.0699     83.4022   9.88     186.0833     1.318     1.191      3.953     137.5775  22.3757        600
 4.23   0.3068   1531.5778    414.1128  13.39      486.748     1.677     1.487      6.174     137.5153  21.3317        601
 5.56   1.2605   1527.3539    731.6343  62.03     118.5158     1.327     1.082      3.548     137.5619  22.8656        602
 5.32   0.6819   1521.5106     12.5315  -7.76     218.8489     1.017     0.992      4.086     137.4219  22.1996        603
 8.01   0.8002   1493.2001    870.4006  70.78     186.6667     0.764     0.445      4.278     137.5464  22.3723        604
 3.99   0.2925   1513.5579    481.9728 -80.06     510.8952     1.223     1.123      4.293      137.593  21.2792        605
 3.50   0.0214   1513.8682    390.9596   2.32     6967.729     1.709     1.671      4.785     137.5153  18.4423        606
 5.32   0.9749   1526.0801    877.5831 -18.35     153.2227     1.002     0.726      4.181     137.5464  22.5867        607
 4.68   0.3654   1487.1720     76.3101  -5.75     408.5934     1.301     1.181      4.466     137.4686  21.5218        608
 3.50   0.2820   1503.1475    721.7911 -72.44     529.9186     1.380     1.324      3.981      137.593  21.2395        609
 4.72   0.4442   1519.0063   1099.2742 -87.46     336.4052     1.626     1.220      3.700      137.593  21.7328        610
 7.91  99.0000   1511.3092      3.6534  43.28    -9.979916     0.572     0.336      2.604     119.7144  99.0000        611
 6.27   1.0726    918.8821   1343.1436  45.01     139.1683     0.824     0.663      3.281      137.453  22.6911        612
 5.33  99.0000   1502.9550   1095.0253 -26.75    -85.93811     1.109     0.888      1.569     137.5775  99.0000        613
 3.50   0.0053   1506.1284    267.6196 -39.06     28270.72     1.890     1.876      5.007      137.593  16.9217        614
 3.50   0.2805   1481.3833    573.6016 -45.53     532.2087     2.213     1.470      5.381     137.4841  21.2348        615
 5.35   2.9036   1501.3430   1412.0780  75.35     51.42213     1.029     0.740      4.210     137.4841  23.7721        616
 5.43   0.2432    915.7727    251.4663  56.44     613.9998     1.873     1.097      6.194     137.5153  21.0796        617
 3.50   0.3934   1497.7295    842.8806  35.10     379.3795     1.131     1.083      3.628     137.4374  21.6023        618
 4.09  99.0000    931.4003   1116.4285 -40.25    -196.1641     1.036     0.947      3.395     137.4686  99.0000        619
 7.42   6.6647   1496.3085   1123.3169 -44.54     22.39508     0.559     0.342      2.281     137.4374  24.6746        620
 6.18   0.5065    921.4901   1197.6259 -53.94     294.8008     1.657     1.149      3.728     137.4841  21.8762        621
 0.00   1.5895   1437.7632    645.7658   2.75     93.99964     1.329     0.990    -34.922     137.5775  23.1172        622
 6.05   0.6743   1495.3975    928.7016 -57.86     221.3882     0.909     0.546      4.440     137.4686  22.1871        623
 0.00   1.4827   1466.6744   1126.9293  27.03     100.6402     1.258     0.872      2.957     137.4063  23.0431        624
 4.37   1.6721   1497.0087   1231.3116 -88.43     89.31218     0.733     0.664      1.554     137.5153  23.1727        625
 4.70   0.1747   1474.0746    996.8602 -16.36     854.3276     2.590     1.317      6.196     137.4686  20.7209        626
 6.97   0.5986    924.5815    309.2061 -20.12     249.4393     0.742     0.450      4.126     137.4841  22.0576        627
 3.97  99.0000    924.8867     44.8511 -26.12    -121.2389     1.060     0.954      3.117     137.4374  99.0000        628
 7.02  99.0000   1482.3333    766.6622  44.81    -100.4063     0.579     0.332      0.649      137.453  99.0000        629
 5.83   8.4881    924.0271    932.7233  87.69     17.59222     0.729     0.685      4.019     137.4997  24.9367        630
 4.61   0.6068   1475.9445    197.0222   9.99      246.196     1.192     0.971      4.846     137.5619  22.0718        631
 3.65   0.1588    927.3818   1321.0515 -60.20     940.8671     1.433     1.344      4.527     137.5464  20.6162        632
 8.06  99.0000   1470.6782    428.6792 -45.05    -60.95189     0.567     0.339      2.075      137.453  99.0000        633
 5.40  27.3933   1496.5206    671.9360   1.87     5.447432     0.770     0.499      4.424     137.4063  26.2095        634
 6.68  99.0000   1477.1406   1022.3224  47.76    -56.01427     1.154     0.627      3.173      137.453  99.0000        635
 3.50   0.0093   1418.4011   1124.8586 -77.49      16118.6     2.022     1.866      5.073     137.6086  17.5317        636
 8.12   0.7747   1451.5862   1163.1904 -20.41     192.7016     0.763     0.442      4.021     137.4686  22.3378        637
 5.83  99.0000    946.8134     42.6076  50.12    -36.88455     1.105     0.675      2.290     137.4219  99.0000        638
 5.27   2.9982   1402.8489   1361.6335 -74.33     49.82246     1.115     0.938      6.688     137.5464  23.8064        639
 5.49   0.3573    946.4409    131.7579 -14.69     418.0668     1.108     1.032      5.552     137.5464  21.4969        640
 7.16   2.0392   1474.9755   1569.0132  31.13     73.22585     0.800     0.795      3.041     137.4997  23.3883        641
 5.21  99.0000    925.0620    664.6942  35.82    -24.28664     0.997     0.819      0.688     137.4374  99.0000        642
 5.40   0.5990    940.5189    724.4358  41.32     249.2957     1.064     1.034      5.819     137.4997  22.0582        643
 3.50   1.4940   1452.4904    389.9434  -2.31     99.90726     1.051     0.921      3.301     137.4374  23.0510        644
 4.82   0.1592    937.3098    514.6938  60.38     937.1055     2.256     1.650      8.120     137.3907  20.6205        645
 3.50   0.0110    928.7859   1176.9735 -63.34      13581.4     1.788     1.770      4.891     137.5153  17.7176        646
 4.99   1.2662   1456.7534    610.2356 -77.31     117.9889     0.967     0.854      3.539     137.5619  22.8704        647
 3.50   0.3025    946.7559    443.5303 -11.64     493.5899     1.245     1.172      4.010     137.4841  21.3166        648
 4.15   0.3847   1437.7389   1269.7083 -34.43     388.0288     1.244     1.181      4.097     137.4686  21.5778        649
 3.55   0.0875    938.2715   1065.6440  74.35     1705.556     1.516     1.424      4.393     137.4686  19.9703        650
 6.58   0.8428   1453.9989    921.0148   0.10     177.1311     0.618     0.610      3.705     137.4686  22.4293        651
 8.04   1.6183   1454.6998   1143.3197  43.89     92.17054     0.557     0.343      2.779      137.344  23.1385        652
 3.50   0.5012   1431.2603    339.1749  19.84     298.0152     1.931     1.296      4.953     137.5464  21.8644        653
 6.94  99.0000   1453.4241    165.2227  19.37    -37.93501     0.747     0.453      3.281     137.5464  99.0000        654
 4.67   0.4209    948.6108    265.9981  16.72     354.7168     1.079     0.933      4.507     137.4686  21.6753        655
 3.50   0.0675   1438.7891    617.5158  -9.75     2212.736     1.518     1.457      4.245     137.5153  19.6877        656
 3.50   0.9496   1436.2822    385.9742 -10.44     157.2431     0.726     0.665      2.376     137.4997  22.5586        657
 4.85   0.7638    949.4341    825.3799 -67.70     195.5526     0.963     0.841      2.611     137.5308  22.3218        658
 3.50   0.0012   1433.4287   1089.0946 -40.78     127779.7     2.216     2.101      5.213      137.453  15.2838        659
 4.96   1.1393    951.0420     59.8504 -55.61     131.1114     1.223     1.146      2.763     137.5464  22.7559        660
 4.48   0.0973    985.7009    452.4940  66.36     1533.044     2.192     1.917      7.981     137.3752  20.0861        661
 0.00  99.0000   1448.4435     86.3038 -75.48    -99.38744     0.964     0.937      0.000     137.3907  99.0000        662
 5.81  99.0000    958.6643    891.9353   5.72    -121.5937     0.739     0.656      1.349     137.4374  99.0000        663
 6.70   5.9500    952.3122   1502.9946   2.63     25.09364     0.732     0.667      2.111     137.4841  24.5511        664
 6.60   0.3254    962.8923    422.3037  19.58      458.448     0.935     0.675      4.533     137.3752  21.3968        665
 0.00  99.0000   1445.3502    729.8088 -28.36    -311.7097     1.132     1.047      6.792     137.5775  99.0000        666
 8.96   0.9814   1431.5128   1278.9904 -32.00     152.1705     0.800     0.312      1.661     137.5153  22.5942        667
 0.00  99.0000    975.5884     70.2583 -18.53    -185.3579     0.739     0.456    -32.459     137.5775  99.0000        668
 5.21   0.8709   1422.9612   1595.5355  27.20     161.6233     1.054     0.653      3.907     129.6176  22.5287        669
 3.50   0.0480   1434.2783    223.0297 -38.73     3108.942     1.575     1.529      4.482     137.4841  19.3185        670
 3.68   0.1601    949.7264    652.6766  89.27       932.02     2.209     1.529      6.582     137.4374  20.6264        671
 6.10   0.7405    954.1638   1027.8688  44.93     201.7095     0.809     0.675      4.579     137.5308  22.2882        672
 6.84   1.5682    983.8214    952.2770 -36.11     95.23994     1.047     0.527      4.961     137.5308  23.1030        673
 5.98   1.0398   1391.8539   1532.9331 -74.35     143.5747     1.314     1.120      5.579     137.4686  22.6573        674
 3.50   0.0741   1407.1237    306.5707 -33.37     2015.361     1.524     1.452      4.513     137.4997  19.7891        675
 3.94   0.3779    964.0480    414.7322 -20.48     395.1048     1.256     1.116      4.385     137.4841  21.5582        676
 6.92   0.3626    973.0498    546.6980 -15.16     411.3609     1.003     0.749      5.465      137.344  21.5144        677
 3.50   0.4468   1435.2114   1345.9427 -76.43     334.3673     1.103     1.098      3.827     137.5775  21.7394        678
 5.44   0.5901    976.1675   1279.1414 -43.84     253.1151     0.813     0.681      4.326     137.5464  22.0417        679
 3.50   0.0057    983.9273    556.8638 -47.92     26371.01     1.891     1.871      5.116     137.4219  16.9972        680
 6.11   1.0855   1410.6138    365.7228 -69.34     137.6581     2.048     0.652      3.465      137.593  22.7030        681
 5.38   1.3866   1387.7228   1583.7048   3.16     107.6097     0.928     0.853      4.558     137.3907  22.9704        682
 3.62   0.0994   1414.4304   1385.1575  32.96     1502.915     1.424     1.390      4.282     137.5775  20.1077        683
 5.58   0.3984    977.7038   1064.9983  -4.34     374.7822     0.728     0.665      3.770     137.4997  21.6156        684
 5.97   2.2779   1419.1465    428.0791 -41.74     65.52342     0.853     0.657      1.325     137.4374  23.5090        685
 0.00   2.3398   1417.7028    105.0311 -11.65     63.77522     0.750     0.672      0.000     137.4063  23.5384        686
 5.35   0.7774    981.3090   1485.5173 -20.65     192.0275     0.951     0.926      4.324      137.453  22.3416        687
 3.73   0.2289   1410.1467    348.3118  48.27     652.1599     1.824     1.430      5.231     137.4374  21.0141        688
 4.79   0.3266    977.1621    451.1198 -80.29     457.2177     1.395     1.281      4.889     137.4841  21.3997        689
 4.03   0.5454   1405.3202    328.2343 -52.99     273.7646     1.263     1.192      4.644     137.4841  21.9566        690
 3.50   0.0021   1392.3256    112.7033 -57.14     71051.58     2.043     1.990      5.323     137.4374  15.9211        691
 4.16   0.1828    979.9540    796.3262 -60.74     816.5953     1.897     1.679      5.222      137.453  20.7700        692
 0.00  12.2143   1401.2513     61.0088  -0.45     12.23369     0.683     0.434      0.207      137.593  25.3311        693
 3.50   0.0224   1387.8695   1427.1104 -78.66     6647.217     1.676     1.662      4.666     137.4063  18.4934        694
 5.43   1.3184   1305.7584    572.4661 -28.68     113.2743     1.038     0.790      4.911     137.5153  22.9147        695
 5.53   1.2433   1028.8491    945.8722 -42.73     120.0388     0.837     0.654      3.642     137.4219  22.8517        696
 4.18   0.3315   1399.7241   1029.9249  30.94     450.2501     1.676     1.466      2.852     137.4374  21.4164        697
 7.24   6.4413   1388.1443   1100.9866  85.64     23.19537     0.920     0.753      3.311     137.5775  24.6365        698
 0.00   1.0847   1396.0151   1101.5850   5.73     137.6854     0.989     0.763     -2.373     137.5153  22.7028        699
 0.00  99.0000   1386.4980    675.9568   0.02    -180.8742     0.789     0.500      0.000     137.3907  99.0000        700
 8.03   1.2573   1402.0109   1343.7205 -84.02     118.8027     0.758     0.680      3.216     137.5464  22.8629        701
 4.65   0.0245   1358.5231   1133.8226  74.98     6084.542     9.508     6.594     30.051     137.5153  18.5894        702
 3.50   0.0613   1389.4053    711.6841  81.49     2434.442     1.589     1.516      4.479     137.4997  19.5840        703
 6.99   0.5352    990.2462      7.4625 -28.26     277.3258     1.469     1.124      2.782     136.6725  21.9425        704
 3.50   0.0002   1365.6389   1158.5627 -61.99     703050.3     2.775     2.613      5.536     137.5619  13.4325        705
 3.50   0.0897   1391.3113   1037.2988 -67.49     1662.703     1.494     1.448      4.059     137.3752  19.9980        706
 6.34   1.0249   1027.8447    179.1574 -46.03     145.7604     1.273     0.867      7.637     137.5619  22.6409        707
 0.00   5.4222   1384.5070   1383.5040  -0.31     27.51463     1.068     0.500      0.000     137.3752  24.4511        708
 4.49   0.7420   1378.1963    317.5049 -18.68     201.1936     1.323     1.092      4.591     137.4686  22.2910        709
 4.99   0.3044   1027.0353    462.2316  -5.81     490.6442     0.873     0.743      3.831     137.5308  21.3231        710
 0.00  25.0256   1027.3413    350.5627 -39.74     5.968218     1.013     0.865      0.191     137.5308  26.1104        711
 4.72   0.7974   1351.2303    150.2305  80.68       187.33     2.162     1.660      8.924     137.5464  22.3685        712
 3.62   0.7661   1345.8954    192.6021  62.75     194.9109     1.027     0.942      3.267     137.4997  22.3254        713
 3.50   0.0193   1371.5310   1017.4489 -37.34     7716.848     1.902     1.751      4.859     137.4686  18.3314        714
 4.39   1.4684   1026.6232    605.9142  -0.73     101.6926     1.056     0.926      2.798     137.4997  23.0318        715
 4.61   0.5468   1367.3762    147.6849  44.63     273.0651     1.049     0.928      3.996     137.4997  21.9593        716
 0.00  99.0000   1368.1707   1068.1990  45.38    -61.71463     0.745     0.564      0.220      137.453  99.0000        717
 5.57   0.5007   1369.6470   1213.9382 -16.30     298.2183     1.108     0.943      5.329     137.4841  21.8637        718
 0.00  99.0000   1311.2119    269.9725   1.04    -92.24964     0.698     0.409     -5.864     137.5464  99.0000        719
 3.94   2.4167   1276.5571    341.7841  80.92     61.80963     0.954     0.928      0.803     137.5464  23.5724        720
 3.50   0.0510   1264.4229    806.2896 -18.43     2927.571     1.560     1.538      4.553     137.4997  19.3837        721
 7.00  99.0000   1307.3242    793.3080 -45.86    -38.01514     0.562     0.341      0.704     137.4219  99.0000        722
 3.50   0.2491   1094.6395   1525.1777 -30.46     599.6841     1.334     1.266      4.090     137.5464  21.1052        723
 6.63   0.3884   1361.7042   1110.3534  56.98     384.0709     1.183     0.776      6.081     137.3752  21.5890        724
 0.00  99.0000   1351.8541    473.8246 -48.19    -23.26067     0.815     0.672      4.889      137.593  99.0000        725
 5.27   0.7466   1369.7343    705.0079   5.00     200.1669     0.719     0.666      1.828     137.6086  22.2965        726
 0.00   5.4374   1359.8328   1242.1254  42.19     27.45946     0.788     0.679      0.000     137.4841  24.4533        727
 7.35   1.7474   1351.7126    965.6663 -42.38     85.41719     0.557     0.342      2.001     137.4374  23.2211        728
 5.66   0.1412   1329.6985   1138.2083 -78.58     1056.901     2.447     1.630     10.115      137.453  20.4899        729
 8.03   0.8676   1098.2954    861.6458  42.19     171.9793     0.569     0.337      2.916     137.3907  22.4613        730
 8.52   0.7194   1361.5084    525.3306 -89.77     207.4604     0.931     0.470      5.586     137.4374  22.2577        731
 0.00   2.2742   1361.7424    389.2371 -25.90     65.67638     1.318     0.771      7.908     137.5308  23.5065        732
 0.00   0.6629   1302.4600     40.9724  88.35     225.3658     0.798     0.697     -4.427     137.5619  22.1678        733
 3.84   0.7989   1345.2644    603.6066 -53.36     187.0287     1.351     1.168      4.165      137.593  22.3702        734
 4.45   0.4985   1298.1709     52.2045  42.58     299.5583     1.145     1.089      4.379     137.5153  21.8588        735
 6.46   1.0590   1305.3463    842.9009  21.88     140.8624     1.169     1.048      3.921     137.3596  22.6780        736
 3.50   0.0544   1306.4845    668.0395 -50.87       2745.1     1.914     1.586      4.993     137.4997  19.4536        737
 3.50   0.0486   1328.8699    654.2535  11.69      3073.75     1.733     1.657      4.958      137.453  19.3308        738
 3.51   0.2270   1331.7373    105.7020 -22.36     657.7203     1.408     1.294      3.826      137.453  21.0049        739
 3.92   0.7386   1387.8553    805.0548  64.31     202.1757     1.193     1.139      3.250     137.4997  22.2857        740
 3.50   0.0056   1318.9818    658.3548 -10.07     26804.04     1.880     1.869      5.111     137.5464  16.9795        741
 0.00  99.0000   1316.2993   1355.6572  42.83    -142.6536     0.566     0.339      0.000     137.3752  99.0000        742
 3.50   0.0001   1220.4615    993.4240 -37.25      1059808     7.178     6.670     10.354     137.5619  12.9869        743
 6.41   1.0409   1314.3456   1132.9926   3.01     143.6094     0.742     0.668      4.091     137.6397  22.6570        744
 3.58   0.1322   1258.4662    430.8267  -5.62     1129.783     2.268     2.110      5.999     137.5308  20.4175        745
 7.00   0.7903   1338.1383   1478.8722  41.74     188.8775     0.831     0.669      4.986      137.453  22.3595        746
 7.08   0.4034   1301.7408    937.3929  86.72     370.4361     1.329     0.611      5.953     137.6086  21.6282        747
 6.17   0.4213   1324.0872    631.8570   9.21     354.2719     1.745     0.712      6.894     137.4374  21.6767        748
 3.71   0.2257   1303.8031    891.3152 -58.81     661.5186     1.341     1.271      3.624     137.4997  20.9986        749
 4.11   0.0558   1306.6106   1034.6216 -39.20     2676.436     2.756     2.091      8.051     137.4841  19.4811        750
 3.50   0.6179   1329.3933    385.2852  -3.69     241.6798     1.296     1.253      2.707     137.4997  22.0919        751
 3.64   0.1936   1318.3696    262.4020 -29.61     771.2055     1.276     1.231      3.977     137.4841  20.8321        752
 0.00   3.0319   1322.6433    957.6936 -47.21     49.21243     0.575     0.334      0.000     137.3907  23.8198        753
 3.50   0.0009   1297.3101    723.3259 -19.97     166981.1     2.659     2.132      5.703     137.4219  14.9933        754
 7.95   1.4720   1100.0000    111.0088   0.00     101.4081     0.859     0.289      3.257      137.453  23.0348        755
 7.44   0.5445   1311.9938    998.0768 -28.43     274.3016     1.170     1.052      7.018     137.5308  21.9544        756
 3.93   0.2609   1128.1840    545.7701 -30.27     572.5468     1.357     1.284      4.402     137.5619  21.1555        757
 3.50   0.0241   1290.3876    760.6219 -25.70     6208.409     2.257     1.708      5.373     137.4997  18.5675        758
 3.50   0.0395   1277.2014   1329.9415 -87.78     3785.743     1.635     1.592      4.377     137.6086  19.1046        759
 5.36   0.3921   1384.7158   1272.3895  46.12     380.8763     1.497     1.334      5.405     137.4997  21.5980        760
 6.67   2.3539   1123.5750    756.7877 -48.27      63.4365     1.098     0.721      2.124     137.4997  23.5442        761
 6.04   1.1202   1124.4918    274.9145  -0.16     133.1826     0.776     0.500      1.904     137.3752  22.7389        762
 0.00  23.3701   1175.9192     17.0545 -23.45     6.385952     1.282     0.648      7.695     137.4219  26.0369        763
 6.61   4.8135   1299.0090    845.0176  -0.23     31.01502     0.629     0.597      0.853     137.4686  24.3211        764
 8.09   0.5269   1128.5016    872.2014  88.21     283.3168     0.976     0.730      2.842      137.453  21.9193        765
 4.20   2.1701   1290.6204    544.2021 -20.71     68.81039     1.143     1.012      3.975     137.4997  23.4559        766
 0.00  99.0000   1292.7864   1089.9070  60.37    -88.74476     0.923     0.748      0.000     137.4841  99.0000        767
 7.27  99.0000   1104.0562    625.2693  83.01    -52.70156     0.721     0.682      3.390      137.453  99.0000        768
 3.50   0.0002   1150.6973    692.2532 -38.99     642578.2     2.887     2.676      6.070     137.3907  13.5302        769
 3.50   0.2769   1291.5846    411.0669  -7.91     539.6094     1.363     1.260      4.193     137.5775  21.2198        770
 8.12   0.9781   1107.3711    969.7735 -17.41     152.7192     0.756     0.447      3.709     137.5464  22.5903        771
 4.77  99.0000   1282.3370   1567.6477 -45.17    -270.3902     0.972     0.847      1.209     137.4841  99.0000        772
 4.40   0.0984   1202.3214   1074.0956  33.00     1517.041     2.223     1.786      7.948     137.3907  20.0975        773
 8.52   0.5199   1152.4865    574.5125 -44.93     286.9999     0.506     0.494      3.034     137.4063  21.9053        774
 7.49   1.5341   1196.4852   1199.4744  48.16     97.26974     0.502     0.498      3.009     137.4063  23.0801        775
 0.00  99.0000   1129.1439   1143.1812 -48.55    -131.7068     0.817     0.666   -155.805     137.5308  99.0000        776
 7.01   0.6045   1140.4651    659.7985 -52.32     247.2213     1.893     1.522     11.356     137.6086  22.0673        777
 4.18   0.3634   1272.8336    696.5293 -23.77     410.9465     1.376     1.208      5.036     137.5153  21.5155        778
 4.58   0.5365   1261.2365    853.7141 -51.40     278.3055     1.240     1.125      4.995     137.4997  21.9387        779
 4.33  99.0000   1172.2396    206.5415  -0.52    -23.50114     0.948     0.716      3.007     137.5308  99.0000        780
 7.67   2.7602   1144.4635   1337.2426  -9.82     54.09913     1.001     0.475      1.065     137.4997  23.7170        781
 7.53   0.2896   1227.8853    913.5693 -17.44     515.7615     1.499     1.332      8.993     137.5153  21.2689        782
 4.39   3.5348   1105.8502   1265.8051 -41.21     42.27806     0.868     0.840      2.020     137.6086  23.9847        783
 5.42   0.8808   1243.1521    612.2711   8.43     169.4966     1.060     0.898      5.360     137.4686  22.4771        784
 4.15   0.4227   1227.8395   1152.2141 -22.11     353.4561     1.188     1.147      4.373     137.5619  21.6792        785
 3.50   0.0157   1271.8032    608.2762 -58.06     9497.487     4.613     2.623     10.082     137.5308  18.1060        786
 0.00  99.0000   1243.4989   1537.5067 -45.16    -344.8647     0.504     0.496      0.000     137.3907  99.0000        787
 3.50   0.0116   1213.5747    511.3549 -25.18     12893.87     1.795     1.778      4.989     137.5775  17.7740        788
 3.50   0.2516   1236.6469     46.4764  -7.04     593.3223     1.257     1.207      3.871      137.453  21.1168        789
 3.54   0.2099   1241.5844    671.1392   6.78     711.4236     1.349     1.311      4.255     137.5153  20.9197        790
 4.91   0.9156   1128.6785    503.2145 -72.86     163.1551     0.970     0.848      5.299     137.5619  22.5185        791
 6.05   0.6222   1237.0966    855.9076 -56.54     239.7729     1.347     1.137      7.454     137.3752  22.1005        792
 3.50   0.0181   1209.7596   1277.4928  80.92     8220.372     6.133     3.697     11.783     137.3752  18.2628        793
 3.89   0.2598   1179.9685    547.8348  27.07     575.0245     1.325     1.278      4.327     137.5464  21.1508        794
 3.52   0.1091   1236.1481   1552.2064 -62.25     1370.267     1.513     1.419      4.613     137.6241  20.2080        795
 5.47   0.1958   1228.9092    597.3938  -8.65     762.3607     1.958     1.837      8.263      137.453  20.8446        796
 0.00   2.0462   1223.3279    403.3292 -44.94     72.91925     0.573     0.336      0.000     137.3907  23.3929        797
 7.66   0.5360   1174.8308    251.6800 -22.04     278.5751     0.744     0.641      4.461     137.4997  21.9376        798
 3.65  99.0000   1018.5430   1153.2629 -11.43    -106.8925     1.024     0.928      2.645     137.4841  99.0000        799
 6.41   0.7035   1252.5984   1087.1168  72.04      212.278     0.947     0.671      5.684     137.5153  22.2327        800
 4.88  99.0000   1184.2291    312.3769  -4.81    -179.6747     0.955     0.906      2.457     137.5308  99.0000        801
 4.38   0.9245   1203.2086   1215.9971 -46.57     161.4775     1.081     1.040      4.432     137.4686  22.5297        802
 3.50   0.5890   1261.4006    214.4516 -30.80      253.718     1.011     0.985      1.533     137.6086  22.0391        803
 5.10   0.3646   1220.3372   1429.9238 -84.30     409.3247     1.241     1.166      5.796     137.4374  21.5198        804
 4.24   0.1223   1211.8528   1427.9130  72.05     1220.295     2.884     2.287     10.387     137.4219  20.3338        805
 7.06   1.6443   1086.4921   1010.4984 -44.40     90.74015     0.501     0.499      3.008     137.3907  23.1555        806
 4.41   0.1095   1194.0449    122.4260 -77.15     1364.169     2.421     1.984      6.116     137.5775  20.2128        807
 3.89   0.0311   1171.4908    756.1340 -51.46     4796.391     3.866     3.757     10.374     137.4686  18.8477        808
 6.93   0.5508   1194.9761   1051.7767  26.54     271.1807     1.358     1.086      5.488     137.5464  21.9669        809
 3.50   0.0696   1233.3156    303.1268  10.70     2143.756     1.539     1.496      3.961     137.4219  19.7221        810
 5.49   0.4992   1209.7424    827.6857  20.32     299.0334     1.355     0.992      6.131     137.4686  21.8607        811
 5.19   0.5760   1209.4709   1414.3469   8.04     259.1655     1.389     0.977      6.028      137.453  22.0161        812
 3.55   0.0994   1206.7057    837.2629 -23.02     1501.751     1.473     1.408      4.390      137.453  20.1085        813
 3.50   0.2029   1200.0442   1440.7319  64.16     735.6948     1.865     1.674      5.185     137.4841  20.8833        814
 3.50   0.1096   1200.7561    337.4187 -18.04     1363.088     1.454     1.439      4.172     137.5308  20.2137        815
 5.57  99.0000   1197.0143    410.9902   3.15    -60.11912     0.615     0.613      3.492      137.453  99.0000        816
 7.37   4.2349   1186.0320   1233.0010  45.53     35.26016     0.915     0.530      4.684     137.4997  24.1818        817
 5.96   0.4720   1181.9125    672.2666 -38.80     316.2489     1.337     1.252      6.485      137.453  21.7999        818
 3.50   0.3342   1180.7084    174.5835  42.19     446.8664     1.217     1.137      3.791     137.5153  21.4246        819
 5.48   0.6969   1222.1429    828.8300  43.66     214.3622     0.817     0.666      4.904     137.5619  22.2221        820
 8.16   0.4162   1187.8943    935.4072 -48.99     358.7799     0.997     0.748    -33.084     137.4841  21.6629        821
 4.40   5.9140   1195.9845   1332.0293 -26.05     25.26095     0.791     0.777      2.962     137.5619  24.5439        822
 6.16  99.0000   1208.4907   1453.4929 -44.90    -205.2174     0.505     0.495      2.728     137.3907  99.0000        823
 7.42   0.9258   1185.2233    389.9972   0.12     161.3093     0.692     0.416      3.640     137.5153  22.5309        824
 5.91   1.3960   1179.3308   1402.4528 -22.60     106.9276     0.953     0.825      2.317      137.453  22.9773        825
 7.60   0.3469   1178.1711   1306.1359  44.87     430.4759     0.759     0.567      4.554     137.5153  21.4651        826
 5.29   0.4755   1146.7434    110.7038   6.37     313.7855     1.044     0.920      4.156     137.3907  21.8084        827
 3.69   0.0689   1119.2843    328.1035  59.93     2165.391     2.997     1.855      7.426      137.344  19.7112        828
 3.50   0.0034   1164.2914   1298.2402 -60.14     44438.33     1.971     1.917      5.144     137.4063  16.4306        829
 3.70   0.1173   1150.1506     97.7526 -18.30     1273.814     1.468     1.382      5.058     137.5619  20.2872        830
 5.51  19.4810   1157.1002    184.2888 -70.77     7.656446     1.252     0.910      2.028      137.344  25.8399        831
 5.05   0.6937   1155.2443    565.8426 -72.71     215.3642     1.371     1.108      4.227     137.5619  22.2171        832
 0.00  99.0000   1166.4851    637.9879  -0.63    -294.3009     0.781     0.500      0.000     137.5153  99.0000        833
 4.59   0.6981   1166.0668   1598.8599  81.41     170.9183     1.399     0.944      5.571     109.8729  22.4680        834
 3.99   0.1813   1152.6777   1351.5503 -11.80     823.3251     1.660     1.613      5.946     137.4219  20.7611        835
 6.36   1.1738   1155.5432    349.9644 -61.96     127.2602     1.000     0.667      1.895     137.5464  22.7883        836
 4.16   0.2320   1160.7136    886.1776  -5.98     643.5046     1.328     1.227      4.015     137.4997  21.0286        837
 7.46   0.3769   1156.7861    969.3268 -20.66     396.5484     0.978     0.847      4.787     137.6241  21.5543        838
 3.50   0.0286   1156.7560    234.6834 -79.93     5228.611     1.671     1.666      4.964     137.4686  18.7540        839
 6.77  99.0000   1154.0000   1123.9731   0.00    -11.46031     0.860     0.289      1.676     137.4841  99.0000        840
 3.50   0.0178   1218.0081   1193.4810  65.18      8409.94     1.997     1.875      5.210     137.4997  18.2380        841
 0.00  99.0000   1205.5585    721.4760  38.68    -105.5245     0.504     0.491      0.000     137.4841  99.0000        842
 6.43   2.1570   1145.6858    793.0436  -9.70     69.21897     0.733     0.663      2.513     137.4841  23.4494        843
 3.57   0.1858   1129.1498    217.8572  -3.65     803.5124     1.557     1.367      4.678     137.4997  20.7875        844
 4.30   0.5717   1171.6689    231.1080 -63.51     261.0423     1.079     0.977      2.931     137.4219  22.0082        845
 4.68   0.4055   1144.4302    768.3583 -59.72     368.4394     1.570     1.123      4.041     137.5775  21.6341        846
 4.35   1.2018   1176.0365   1597.4617 -85.35     107.6625     1.045     0.936      1.135     119.1411  22.9698        847
 3.50   0.0053   1137.4620    146.3127 -54.99     27980.83     1.912     1.893      5.285     137.4374  16.9328        848
 5.35   0.9844   1078.2360    920.6154 -32.32     151.7498     0.959     0.940      3.101     137.5464  22.5972        849
 4.59   2.1376   1130.0065    357.5856 -42.74     69.82338     1.180     0.984      4.377     137.4374  23.4400        850
 4.86   0.2896   1132.8885    605.9141 -11.29     515.2696     1.313     1.173      5.161     137.4219  21.2699        851
 3.50   0.0104   1128.9320    181.7648 -53.97     14294.21     1.817     1.770      5.053     137.5308  17.6621        852
 6.05   1.1153   1127.2538    836.0876  74.99     133.7915     1.023     0.750      3.329     137.4063  22.7339        853
 5.53   0.2057   1104.5703    677.0995  39.04     725.3848     2.169     1.755      6.090     137.3907  20.8986        854
 6.54   1.2140   1125.1917    164.8132 -46.07     122.9596     0.742     0.565      1.569      137.453  22.8256        855
 7.26   0.3952   1120.9564    739.5446   0.88     377.8917     1.058     0.785      5.253     137.4997  21.6066        856
 5.82   0.7108   1119.8595    638.3765  23.52     210.1883     1.121     0.835      5.612     137.5775  22.2435        857
 5.18   0.5438   1115.5903   1168.8553 -34.12     274.8032     1.356     0.982      2.675      137.593  21.9524        858
 3.50   0.0240   1106.4481    426.3384  -9.29     6208.488     1.716     1.686      5.020     137.4686  18.5675        859
 6.93   3.1557   1116.5751    663.2375 -57.89     47.32924     1.025     0.796      3.083     137.5308  23.8622        860
 6.38   0.4073   1107.9810   1122.0045 -62.43     366.6173     0.791     0.782      4.539     137.4841  21.6395        861
 5.17   0.4238   1113.1106    672.6693 -71.48     352.1153     1.311     1.310      6.475     137.4063  21.6833        862
 8.70   0.9114   1114.6976    505.6875 -44.41     163.6686     0.554     0.344      3.327     137.3596  22.5151        863
 5.24   0.1213   1110.1713    477.9135  27.23     1230.774     3.267     2.221      9.594     137.4997  20.3246        864
 3.50   0.0156   1103.5300    750.2573 -87.83     9558.198     1.778     1.761      5.035      137.453  18.0991        865
 3.77   0.4130   1093.7592   1134.8015  40.97     361.7079     1.145     1.081      3.937     137.5464  21.6541        866
 0.00   1.6010   1083.5940    844.8043  19.73     93.24568     0.765     0.444      4.593     137.4686  23.1259        867
 5.81   0.8172   1076.9998    466.9958 -37.55     182.7549     0.792     0.772      4.608     137.5153  22.3953        868
 3.50   0.0056   1093.8246    776.4846  83.71     26699.36     1.916     1.881      5.229     137.4997  16.9837        869
 3.68   0.1979   1078.3486    328.4358 -38.53     754.5969     1.267     1.239      3.781     137.5308  20.8557        870
 4.89   0.2338   1089.8680    466.5598 -61.42     638.7336     2.769     1.373      5.406     137.5153  21.0367        871
 6.19   0.2727   1091.9058    427.6240  27.34     547.3704     2.152     1.530      7.775     137.4686  21.2043        872
 5.08   0.3760   1087.3275    395.1394  67.72     396.9566     1.334     1.094      4.291      137.453  21.5531        873
 4.47   0.1384   1059.0112    725.3658  25.60     1079.209     2.079     1.759      7.588     137.5619  20.4672        874
 3.81  41.4962   1085.5021   1451.3997  65.38      3.59729     1.515     1.213      2.834      137.453  26.6601        875
 3.50   0.0589   1088.2401    640.8350  86.91     2536.276     1.566     1.534      4.445     137.5619  19.5395        876
 3.50   0.0004   1022.7267     48.6201 -35.71     417850.1     2.597     2.408      5.786     137.5775  13.9974        877
 3.50   0.0050   1079.0282    510.4786 -32.38     29676.21     1.914     1.898      5.193     137.4841  16.8690        878
 4.25   0.2870   1062.2235      5.4637 -29.00     490.5087     1.246     1.180      4.573     129.6341  21.3234        879
 3.50   0.0173   1080.8505   1146.6935  77.88     8606.262     1.745     1.731      4.870     137.4063  18.2130        880
 4.12   0.0835   1071.2167   1217.5026 -70.66     1787.173     2.520     2.104      7.091     137.4841  19.9196        881
 4.82   0.6819   1082.6919     41.1963  -8.16     218.9188     1.616     1.304      4.244      137.453  22.1993        882
 4.37   0.2714   1065.7548    567.4888 -62.16     549.9471     1.384     1.135      4.344     137.4374  21.1992        883
 5.51   1.7608   1079.3701     51.4391 -43.55     84.83616     1.041     0.920      3.371     137.5464  23.2285        884
 4.63   1.1910   1016.3798    199.5536  42.36     125.4239     1.080     0.949      1.776     137.5464  22.8040        885
 4.14   0.3686   1072.2291      5.1956 -71.72      378.147     1.268     1.239      4.480     128.3402  21.6058        886
 3.50   0.0101   1008.8694    812.1041  84.86     14775.98     1.824     1.805      5.103      137.453  17.6261        887
 5.26   0.4541   1073.5564    350.7970  61.84     329.0888     1.464     1.131      5.306      137.593  21.7567        888
 4.81   0.6947   1062.8992    290.3218 -19.83     214.7911     1.087     0.971      4.860     137.3907  22.2200        889
 4.43   0.1848   1064.2568   1561.6133 -67.53     808.4803     2.826     1.830      7.217     137.5619  20.7808        890
 3.50  99.0000   1064.9015   1595.6791  -0.52    -40.97171     1.193     1.117      2.349     128.8892  99.0000        891
 3.50   0.0039   1039.2612    631.3998 -52.15     38025.67     1.943     1.906      5.245     137.6086  16.5998        892
 5.96   0.4904   1055.2920    663.0732   5.50     304.3629     0.739     0.675      2.032      137.453  21.8415        893
 5.25   0.7060   1059.5073    689.4709   0.23     211.4224     1.035     0.500      2.783     137.4374  22.2371        894
 4.91   0.2782   1066.9222   1472.6885  13.82      536.399     2.290     1.464      7.098     137.3907  21.2263        895
 6.46   0.4667   1046.9856   1157.0267  37.73     319.9785     0.802     0.775      4.586     137.5153  21.7872        896
 6.80   0.8086   1047.3096    206.9439  -7.42     184.5946     0.748     0.663      0.529     137.4374  22.3845        897
 3.96   0.6280   1051.4053    236.0589  32.58     237.9468     1.280     1.083      4.432      137.593  22.1088        898
 3.50   0.0193   1037.6960    523.7816  82.78     7742.927     1.756     1.726      4.876     137.4841  18.3277        899
 4.81   0.5585   1041.5990   1094.1293  31.86     267.5258     1.300     0.830      3.157     137.5775  21.9816        900
 5.15   0.4592   1051.6841    399.0921 -82.94     324.9889     1.140     0.849      3.865     137.4063  21.7703        901
 0.00  99.0000   1052.5165   1383.5254  56.93    -14.93272     0.500     0.499      0.000     137.4219  99.0000        902
 6.71   0.3853   1032.5081    491.9370  -0.07     387.4318     0.789     0.500      3.830     137.4686  21.5795        903
 5.45   0.3369   1039.6661    465.6006  32.05     443.5056     1.347     1.141      4.481      137.593  21.4328        904
 4.73   0.2745   1036.8652    120.3497 -37.54     543.9963     2.572     1.361      4.276     137.4841  21.2110        905
 0.00  99.0000   1025.0353      5.9489 -44.25    -192.3947     0.891     0.532     -2.057     131.7786  99.0000        906
 5.31   0.5246   1032.7021    100.3017  39.23     284.3771     0.931     0.759      3.907     137.3752  21.9153        907
 0.00  99.0000   1036.4390    240.4637  -4.44    -3.959233     0.907     0.880     -2.207     137.5153  99.0000        908
 3.62   0.3485   1013.5132    451.4057  19.72     428.4611     1.293     1.062      4.211     137.4997  21.4702        909
 3.73   0.1003   1029.2534    300.8980  65.90     1487.527     2.833     1.955      7.267     137.3752  20.1188        910
 4.77   0.5703    992.2214    498.2236  13.88     261.9306     0.950     0.845      3.483     137.5464  22.0045        911
 3.50   0.0086   1024.8685   1378.5450 -82.84     17347.32     1.908     1.781      5.039      137.453  17.4519        912
 6.67   0.3718   1024.2909    126.9758   2.36      401.583     0.735     0.678      3.954     137.4841  21.5406        913
 6.46   1.8640   1031.4546   1166.4862  30.61     80.08178     0.501     0.497      3.005      137.453  23.2912        914
 3.50   0.0625   1010.2822    343.0762 -25.98      2388.87     1.542     1.500      4.801      137.453  19.6045        915
 0.00   0.7959   1028.5204   1033.8624  49.53     187.5134     0.858     0.665      0.000     137.4219  22.3674        916
 5.72   0.3005   1010.0002    266.0419  37.06     497.0665     1.151     1.135      6.273     137.5464  21.3090        917
 7.25   1.1065   1008.5160    188.9674   0.83     134.9726     0.782     0.500      2.287     137.5153  22.7244        918
 0.00  99.0000   1025.4962   1265.4888 -34.41    -50.55002     0.938     0.561      0.000     137.3596  99.0000        919
 4.83   4.4388    991.4347    344.4879 -26.49      33.6408     0.908     0.880      1.069     137.4997  24.2328        920
 3.50  99.0000   1003.3541   1236.5841  39.67    -90.39768     1.130     0.769      1.532     137.5308  99.0000        921
 4.80   0.8274   1020.2845   1267.2625  45.75     180.3895     2.403     0.986      9.179     137.4374  22.4095        922
 3.50   0.0564   1000.7197    541.0186  31.04      2648.54     1.581     1.571      4.943     137.5464  19.4925        923
 3.50   0.1543   1000.5585   1554.0790 -38.51     967.7671     1.361     1.359      3.829     137.4841  20.5856        924
 3.68   0.1782    998.8989   1272.4159 -27.00     837.7545     1.391     1.252      4.177     137.4686  20.7422        925
 5.61   1.3010   1042.1692    808.1451 -29.58     114.8316     0.877     0.838      3.225     137.5619  22.8998        926
 7.01   4.5509    998.5260   1439.5573 -49.47     32.80502     0.506     0.490      3.038     137.4686  24.2601        927
