#   1 KRON_RADIUS            Kron apertures in units of A or B                         
#   2 Y_IMAGE                Object position along y                                    [pixel]
#   3 MAG_BEST               Best of MAG_AUTO and MAG_ISOCOR                            [mag]
#   4 FLUX_BEST              Best of FLUX_AUTO and FLUX_ISOCOR                          [count]
#   5 X_IMAGE                Object position along x                                    [pixel]
#   6 THETA_IMAGE            Position angle (CCW/x)                                     [deg]
#   7 A_IMAGE                Profile RMS along major axis                               [pixel]
#   8 B_IMAGE                Profile RMS along minor axis                               [pixel]
#   9 MAGERR_BEST            RMS error for MAG_BEST                                     [mag]
#  10 NUMBER                 Running object number                                     
#  11 FLUXERR_BEST           RMS error for BEST flux                                    [count]
 3.50     47.7751  15.4958     105581.9   1809.4619  -1.17     2.089     2.052   0.0008          1     80.64646
 3.97     25.0814  19.8529      1908.76    128.1734 -45.03     2.091     1.738   0.0485          2     85.27242
 4.54     15.3222  18.5336     6433.707    104.8332  -6.11     3.175     2.184   0.0228          3     134.9773
 3.72     13.0684  20.3335      1226.05    391.8920  59.41     1.504     1.341   0.0531          4     59.96079
 6.76     13.6875  21.2452     529.4646    683.3903  -2.32     1.254     0.771   0.1520          5     74.12109
 3.50      2.9619  17.2402        21175   1272.4957  -9.60     3.973     2.324   0.0051          6     99.88973
 3.67     10.1252  21.1184     595.0635    710.6763  38.74     1.267     1.089   0.0906          7     49.64063
 3.50      2.0099  19.1253     3730.669   1789.0267   0.33     1.899     1.180   0.0146          8     50.04586
 8.50      5.9299  21.3122     497.7581    146.3240 -81.33     0.738     0.673   0.1468          9     67.26379
 6.64      3.7148  22.5839     154.2981    889.3494  41.64     0.562     0.339   0.2324         10     33.02587
 5.82     13.9713  22.5674     156.6531   1557.7551 -88.59     0.685     0.430   0.2413         11     34.81232
 5.29     21.4538  21.1971     553.4354    481.9894   5.47     1.249     1.094   0.1383         12     70.48958
 4.57     24.3629  20.8733     745.7653    283.2458 -14.97     1.667     1.254   0.1091         13     74.93414
 6.52     21.3041  21.9232     283.5536    573.2457 -30.80     0.854     0.623   0.2037         14      53.1767
 3.50     39.7215  18.7881     5089.567   1592.2009 -60.76     1.666     1.578   0.0137         15     64.19075
 4.61     28.7470  21.2325     535.6843   1992.9584  10.63     1.178     1.024   0.1160         16     57.20248
 3.50     37.4445  20.3343     1225.144     37.1807  76.99     1.688     1.470   0.0555         17     62.59768
 6.20     26.8429  22.5435     160.1467     54.5985  70.13     0.736     0.448   0.2760         18     40.69718
 3.59     35.4037  20.5791     977.8069    430.7780 -74.85     1.277     1.273   0.0573         19     51.63502
 3.50     83.8007  14.4508     276434.8     84.8643  -3.95     2.244     2.160   0.0003         20     86.21469
 3.50     47.2534  18.4943      6670.77   1392.4606  40.24     1.707     1.656   0.0109         21     66.66052
 6.38     37.2027  21.2639     520.4089    483.5290 -89.12     1.500     0.835   0.1672         22     80.14398
 5.97     33.5543  21.7438     334.4832    290.7148  14.45     1.164     0.705   0.1969         23     60.63077
 8.37     28.3340  22.3147     197.7161   1831.3383 -44.82     0.580     0.332   0.2262         24     41.19049
 6.73     32.0227  22.0200     259.3528    857.3048  79.38     0.738     0.676   0.2211         25      52.7955
 3.51     50.6770  18.5524     6323.448   1630.2522  43.05     1.677     1.660   0.0114         26     66.35683
 7.78     36.0702  21.4587     434.9465    199.1733 -50.26     0.846     0.670   0.1642         27     65.74523
 3.50     43.1428  21.0711      621.543    898.0880  55.11     1.244     1.113   0.0816         28     46.70563
 6.22     40.5510  21.8540     302.2133    700.6210 -75.23     0.995     0.802   0.2284         29     63.55831
 4.93     43.1997  21.9363     280.1497    985.7956  79.54     0.887     0.868   0.1908         30     49.23206
 5.31     43.4737  22.0498     252.3301    945.3765 -80.54     0.946     0.807   0.2239         31     52.02472
 8.01     40.5179  22.5145     164.4714    781.5137  44.80     0.509     0.490   0.3026         32     45.83255
 7.30     43.8012  21.6082      378.972   1639.3257  22.33     0.736     0.651   0.1629         33     56.84828
 6.61     47.4660  21.7292      339.024   1689.1411  64.14     1.155     0.572   0.1931         34     60.29671
 3.50     78.6238  17.2139     21693.28   1562.9475  79.05     1.875     1.830   0.0037         35     73.02294
 6.37     48.8061  21.9069     287.8295   1044.5131  88.44     0.817     0.795   0.2172         36      57.5545
 3.50     53.6231  21.8890     292.6118    938.2899  20.78     1.014     0.910   0.1375         37     37.06055
 5.34     67.4396  20.3092     1253.803   1211.8975 -27.65     1.823     1.643   0.0901         38     104.0494
 4.28     59.8182  22.4354     176.9055    630.8182  43.25     1.530     0.484   0.2437         39     39.69215
 3.50     64.0894  21.9750     270.3356    910.6484 -45.58     1.372     0.665   0.1532         40     38.13499
 7.20     64.1118  21.7166     342.9612    888.1830 -47.87     0.830     0.666   0.1951         41     61.62207
 4.98    136.9296  19.8161     1974.511   1157.3732 -11.59     2.620     1.404   0.0595         42     108.2359
 3.72     84.9909  18.9240     4490.511   1858.2599  71.86     1.685     1.631   0.0168         43     69.62464
 6.90     74.9768  21.7323     338.0638    166.9249 -64.99     1.158     0.573   0.2001         44     62.27417
 6.19     75.9414  21.0269     647.3778   1145.3097  58.20     1.204     0.982   0.1279         45     76.26997
 7.33     73.8695  21.5497     399.9636    146.2144 -59.05     1.021     0.657   0.1818         46     66.96284
 3.50     85.5553  19.4774     2697.359    147.8975 -70.42     1.568     1.494   0.0239         47     59.28325
 4.43     83.2871  20.0820     1545.687   1742.1411  52.08     1.455     1.356   0.0493         48     70.20245
 6.45     74.6615  22.7465     132.8293   2024.6877 -46.24     0.570     0.337   0.2700         49     33.02587
 3.50    119.3527  15.7912     80429.13    409.0343 -22.81     2.062     2.012   0.0011         50     80.64646
 9.56     77.4801  21.9596     274.2057   1958.4961  28.47     0.500     0.499   0.2194         51     55.40885
 5.19    136.9196  21.2059     548.9629   1138.6598  65.79     1.253     1.021   0.1313         52     66.35683
 5.79     96.5909  20.2013     1384.791    467.8998 -35.84     1.569     1.440   0.0769         53     98.05299
 6.53     92.0373  20.5150     1037.299   1929.6885  31.82     1.368     1.284   0.1027         54     98.05299
 3.50    103.3458  18.9588     4348.999    203.0595  42.96     1.747     1.635   0.0166         55     66.66052
 6.32     90.7653  21.1821     561.1134    913.5170 -66.85     1.286     0.914   0.1486         56      76.7978
 4.01    158.2316  17.6506     14509.55    363.6902  70.04     6.237     2.478   0.0133         57     177.3949
 4.54     98.8311  20.1422     1462.254    210.1937  11.85     1.596     1.463   0.0451         58     60.66286
 3.67     96.5028  20.4900     1061.472    965.2560 -24.37     1.346     1.281   0.0556         59     54.30424
 3.76    103.2407  19.4973      2648.34    224.8436  16.46     1.645     1.472   0.0270         60     65.74523
 4.80     98.0901  21.0278     646.8359   1234.5125  86.90     1.307     0.994   0.1051         61     62.59768
 6.39     94.4370  21.6540     363.3267   1740.3676 -69.49     0.961     0.826   0.1919         62     64.19075
 8.40     93.2749  21.2662     519.3179   1289.9292  32.15     1.065     0.647   0.1639         63     78.35995
 8.02     95.6481  21.7281     339.3618    907.1627  60.49     0.751     0.653   0.2003         64     62.59768
 4.32    104.0908  21.0945     608.2867    662.3414  60.39     1.497     1.164   0.1146         65     64.19075
 4.66    104.8935  21.3515     480.0842    617.4846   3.78     1.247     1.103   0.1416         66     62.59768
 6.64    104.3713  21.5671     393.5917   1173.9756 -32.58     1.815     0.503   0.1984         67     71.90802
 6.69    104.4429  21.6565     362.4841    421.6488  64.64     0.953     0.821   0.1979         68     66.05173
 4.57    111.4689  20.6813     889.9984    638.8632   1.28     1.340     1.250   0.0810         69     66.35683
 4.42    108.3102  21.3564     477.9048    975.7573  25.38     1.079     0.964   0.1155         70     50.84665
 5.05    116.7018  20.7696     820.5018    238.1115 -37.68     1.428     1.303   0.1037         71     78.35995
 3.50    129.8689  18.6107     5992.981     17.1366 -37.25     1.977     1.734   0.0133         72     73.29902
 8.81    107.5183  23.0814     97.57458   1199.4955  14.02     0.500     0.500   0.5480         73     49.23206
 5.62    115.7704  22.4473     174.9709   1351.7662  71.84     0.853     0.347   0.2124         74      34.2272
 3.60    124.6857  20.9570     690.3895   1575.7261  48.11     1.290     1.222   0.0812         75     51.63502
 3.60    134.5454  20.0074     1655.567    237.8255 -64.98     1.599     1.469   0.0408         76     62.27417
 3.58    123.9276  21.2567     523.8473   1053.9829 -89.50     1.136     1.095   0.0913         77     44.03449
 6.46    120.5023  22.1401     232.2014    272.5155  18.66     0.972     0.413   0.2184         78     46.70563
 5.11    136.0206  19.8215     1964.717    217.8281   3.12     2.547     1.523   0.0623         79     112.6256
 3.50    202.0947  14.2091     345358.4    841.4165 -26.26     2.290     2.207   0.0003         80     88.52649
 5.46    127.2258  22.7232     135.7081    265.3993  71.91     0.767     0.450   0.2922         81     36.51147
 3.50    135.3488  21.3251     491.8751    617.4883  38.37     1.385     1.135   0.1087         82     49.23206
 3.50    132.3410  21.6071     379.3606    497.8210  15.89     1.251     0.947   0.1221         83     42.63621
 5.21    171.0096  20.0794     1549.376   1421.2386   3.11     2.618     1.421   0.0798         84     113.8741
 5.21    135.4933  21.7227     341.0458   1461.6962  53.07     1.147     0.672   0.1632         85     51.24235
 4.56    136.6467  22.0598     250.0272    991.9123 -64.24     0.904     0.696   0.1810         86     41.67797
 3.50    180.8305  15.3907     116315.6     57.8205   1.03     2.121     2.063   0.0008         87     83.11328
 3.50    423.8297  13.1811     890179.5    446.7198 -23.01     7.028     6.434   0.0003         88     264.9703
 6.05    148.9804  20.7364     845.9652   1018.4108  33.26     1.360     1.234   0.1139         89     88.75436
 7.28    146.9513  21.4240     449.0532   1777.9203 -74.82     1.247     0.737   0.1895         90     78.35995
 7.44    146.3951  22.2543     209.0115    927.2054  18.42     0.778     0.445   0.2558         91     49.23206
 4.67    154.6954  21.5912     384.9701    942.3511 -59.53     1.160     0.849   0.1468         92     52.02472
 4.48    155.0822  21.3419     484.3409    499.2713 -69.81     1.129     1.096   0.1259         93     56.13318
 5.71    152.3335  23.1701     89.92419    217.6546  44.53     0.583     0.330   0.3433         94     28.42414
 4.65    181.0154  19.5551     2511.113    267.4341 -86.61     2.502     1.838   0.0486         95     112.4461
 3.50    164.5790  21.5340     405.7961    115.1227 -33.13     1.171     1.046   0.1166         96     43.57338
 6.12    161.3596  21.8981     290.1803   1861.7961 -16.23     0.969     0.640   0.2046         97     54.67493
 6.25    161.8151  22.2943     201.4573   1309.8341  46.14     0.762     0.564   0.2423         98     44.94251
 7.08    168.8051  20.8497     762.0911   1774.1622  35.94     1.489     0.996   0.1391         99     97.64013
 4.24    168.9172  21.0714     621.3711    965.9404  38.12     1.215     1.075   0.0949        100     54.30424
 6.61    163.9012  21.7994     317.7897    946.1003  45.04     0.831     0.673   0.1881        101     55.04311
 4.68    185.2039  19.6153     2375.602   1478.5349  65.92     2.317     1.719   0.0484        102     105.9729
 3.50    169.4879  22.3074     199.0376    692.0450  85.91     0.828     0.679   0.1734        103     31.77916
 7.59    168.6057  22.2554     208.8115    123.7763  19.01     0.747     0.448   0.2624        104     50.44785
 4.68    180.9934  21.1262      590.787   1175.8380 -32.67     1.451     1.118   0.1242        105     67.56342
 3.53    188.5265  21.1992     552.3645   1651.2532  -2.23     1.423     1.243   0.1015        106     51.63502
 7.44    187.4356  20.8513     760.9817    853.2240  48.89     1.178     1.020   0.1302        107     91.22334
 3.50    198.1050  19.4846     2679.629   1286.7784  59.92     1.602     1.476   0.0248        108     61.29342
 8.07    183.2076  22.3539     190.6901   1297.4166  70.39     0.745     0.451   0.3007        109      52.7955
 3.50    199.2946  19.2250      3403.46   1316.4335 -66.66     1.617     1.599   0.0203        110     63.55831
 4.34    191.1088  21.5735     391.2908   1382.2776  -1.59     1.089     1.003   0.1411        111     50.84665
 5.92    190.2158  21.9677      272.155   1127.5168   2.25     0.980     0.724   0.2283        112     57.20248
 6.03    198.5749  20.9095     721.2838   1996.5325 -38.76     1.484     1.196   0.1363        113     90.55666
 6.11    200.9094  21.4211     450.2682   1874.3276  84.50     1.055     0.900   0.1622        114     67.26379
 5.62    202.8932  21.4744     428.6735    286.9711  36.64     1.456     0.814   0.1749        115       69.042
 4.76    210.8043  20.3851     1169.175    905.5334 -87.00     1.516     1.257   0.0686        116     73.84808
 5.91    203.5934  21.9223     283.7827   1385.7551 -87.31     0.983     0.713   0.2148        117     56.13318
 5.13    207.3578  21.6237     373.6184   1567.1519  23.80     1.127     0.855   0.1652        118     56.84828
 6.27    209.0812  21.6561     362.6268    174.6127 -15.94     1.036     0.731   0.1816        119     60.63077
 6.05    221.7847  21.3483     481.4791   1674.9954 -84.52     1.556     0.718   0.1647        120     73.02294
 3.50    234.4955  19.1253     3730.709   1319.2437  87.11     1.677     1.557   0.0189        121     64.81702
 8.19    214.5098  22.1576     228.4841   1766.5563  56.15     0.502     0.494   0.2178        122     45.83255
 5.97    218.9956  21.9249     283.0902   1560.6688 -35.88     1.027     0.628   0.2040        123      53.1767
 3.98    232.7005  20.4212     1130.889    867.2000  15.26     1.481     1.249   0.0579        124     60.29671
 5.64    230.5946  21.4375     443.5031   1769.6071  10.83     1.235     0.957   0.1698        125     69.33393
 4.54    238.0278  20.8780       742.51   1024.9519   8.89     1.547     1.339   0.1076        126     73.57407
 3.71    247.9480  20.0937     1529.104   1603.9935  36.25     2.268     1.582   0.0562        127     79.12946
 6.71    235.3030  22.1108     238.5447    801.4216  32.27     0.936     0.549   0.2489        128     54.67493
 6.99    236.1177  21.8593     300.7247   1172.6427  17.78     0.974     0.671   0.2272        129     62.91952
 4.95    245.3051  21.6551     362.9541   1848.4601  57.40     1.236     0.837   0.1701        130     56.84828
 3.83    249.9222  20.7500       835.45    240.0003 -60.10     1.395     1.286   0.0753        131     57.90438
 3.50    332.4452  13.6502     577839.1    850.3535 -10.62     2.442     2.305   0.0002        132     93.19478
 3.50    256.2734  20.7032     872.2267     58.4184  29.38     1.390     1.098   0.0608        133     48.82006
 5.44    281.6423  18.8583     4770.588    599.3572 -59.38     2.831     2.551   0.0375        134     164.6393
 5.19    258.9586  21.4118     454.1475   1938.5734 -66.93     1.062     0.897   0.1393        135     58.25216
 5.13    267.4176  21.2783     513.5447    505.8069 -55.77     1.189     0.933   0.1282        136     60.63077
 4.42    275.9170  19.8668     1884.405    726.3789  10.96     2.355     1.672   0.0570        137     98.87353
 6.30    267.7991  21.9276     282.3876   1078.7241   6.10     0.894     0.768   0.2254        138     58.59787
 3.50    293.7979  17.7238     13564.26     51.8876  41.00     1.834     1.800   0.0057        139     71.62658
 4.49    284.1187  19.8405     1930.634    985.2731   9.43     2.066     1.635   0.0523        140      92.9778
 3.53    273.8155  20.9915     668.8151   1168.9657  34.52     1.204     1.120   0.0751        141     46.27115
 7.17    267.5219  22.4715     171.1136   1515.5095  41.85     0.501     0.498   0.2676        142     42.15982
 5.54    272.1343  21.8911     292.0646   1480.8132 -28.88     0.979     0.748   0.1977        143      53.1767
 6.71    273.3091  21.9651     272.8219   2025.0941 -29.87     0.888     0.596   0.2191        144     55.04311
 5.23    275.0131  22.7143     136.8246    838.2280 -89.45     0.697     0.420   0.2522        145     31.77916
 5.10    278.5295  21.9042     288.5616   1156.8646  47.16     1.034     0.720   0.1883        146     50.04586
 4.92    282.1840  21.8616     300.1017    818.3969 -46.76     1.184     0.854   0.2018        147     55.77219
 5.78    284.5416  21.0604     627.6932    547.8062  20.93     1.323     0.987   0.1292        148     74.66411
 6.38    279.4843  22.6446     145.9034   1571.4686  78.09     0.500     0.499   0.2676        149     35.95401
 4.29    289.3799  21.5081     415.5758    433.3553  60.81     1.187     0.938   0.1329        150     50.84665
 3.50    294.8807  20.0154     1643.419   1438.4133  54.96     1.451     1.440   0.0376        151     56.84828
 3.82    298.4335  20.4784     1072.881   1524.7085 -13.69     2.206     1.295   0.0731        152     72.18837
 4.18    304.3109  20.0636     1572.007    961.7872  30.98     2.325     1.670   0.0642        153      92.9778
 7.22    293.9982  21.7645     328.1715   1876.1555  -2.17     0.947     0.748   0.2256        154      68.1587
 4.28    320.3971  18.7043     5497.573    616.9211 -76.42     2.491     2.308   0.0227        155      115.109
 3.50    301.6922  22.0002     264.1417     92.8669  77.39     1.030     0.744   0.1431        156     34.81232
 3.50    315.5953  19.2594     3297.056     69.5812   6.94     1.696     1.590   0.0213        157     64.81702
 6.36    303.6768  21.6687     358.4507   1643.0951  67.24     0.911     0.689   0.1722        158     56.84828
 3.50    589.6677  13.4924     668255.1    182.8338 -17.24     6.547     5.990   0.0004        159     246.5702
 4.86    350.5802  17.6827     14086.67    666.2453 -43.26     4.069     3.045   0.0148        160     192.5723
 3.50    335.1689  17.2114     21744.01   1015.9412  -2.43     1.898     1.836   0.0037        161     73.57407
 3.87    327.7777  19.1325     3706.038    906.0149  28.58     1.738     1.578   0.0212        162     72.46763
 3.98    330.8407  20.1512     1450.173    517.9651 -11.76     1.530     1.391   0.0492        163     65.74523
 3.50    342.3271  18.5684      6230.52    212.7338 -10.85     1.717     1.698   0.0118        164     67.86171
 5.80    323.8529  21.9684     271.9889   1528.4736 -25.76     1.128     0.583   0.2123        165      53.1767
 3.50    367.1026  17.3513     19115.03    365.0495  31.65     3.945     2.723   0.0073        166     128.8526
 6.92    338.8359  20.2551     1317.856    223.4326 -18.41     1.345     1.155   0.0799        167     97.01756
 6.20    326.4298  22.3536     190.7483    393.0092  88.69     0.778     0.612   0.2756        168     48.40457
 4.47    340.3760  20.3625     1193.674   1552.3898 -70.86     1.755     1.281   0.0689        169     75.73847
 6.59    328.9881  22.1005     240.8179    979.0529 -45.02     0.891     0.529   0.2239        170     49.64063
 6.33    338.2973  21.1006     604.8893    509.2126  53.12     1.403     1.140   0.1622        171     90.33334
 3.50    339.9496  20.8321     774.5945   1351.5309 -18.50     1.317     1.259   0.0713        172     50.84665
 5.34    337.3274  21.3214      493.584     87.0966  -0.16     1.133     1.033   0.1419        173     64.50464
 6.34    339.5151  21.6890     351.8147    516.4710   9.02     0.944     0.916   0.2076        174     67.26379
 7.25    351.3694  20.7123     864.9031    449.1992  66.75     1.804     1.164   0.1487        175      118.396
 7.76    338.6789  22.2256      214.621    340.6568 -44.04     0.576     0.334   0.1930        176     38.13499
 7.89    339.5136  22.1268     235.0645     18.4387 -59.38     0.502     0.494   0.2117        177     45.83255
 3.50    377.7096  16.5653     39427.24   2012.5479  -5.54     1.965     1.941   0.0021        178     77.58281
 6.04    342.1476  22.3220     196.3854   1321.6935  -7.37     1.435     0.306   0.2435        179     44.03449
 6.82    348.5327  21.3426     483.9984    819.7367  37.06     1.087     0.817   0.1607        180     71.62658
 4.68    354.8746  21.1686      568.176   1581.1191  41.61     1.754     1.033   0.1353        181     70.77554
 3.50    368.6043  18.9348     4446.024    194.4534  16.24     1.744     1.650   0.0166        182     67.86171
 3.50    377.0105  17.4508     17441.94   1780.8149  41.80     1.841     1.791   0.0045        183     72.18837
 7.24    356.0051  21.6356     369.5365    319.9995 -56.50     0.798     0.769   0.1858        184     63.23972
 7.08    372.8461  20.0873     1538.035    674.2722  65.35     2.021     1.252   0.0901        185     127.5924
 5.98    360.8631  21.9928     265.9346   1757.2687 -82.31     1.021     0.633   0.2202        186     53.93102
 7.41    355.3196  22.6129     150.2252   1126.6635  44.22     0.573     0.336   0.2517        187     34.81232
 3.50    359.2988  22.4573     173.3683   1511.3940  31.31     0.973     0.538   0.1735        188     27.70443
 3.50    364.9217  21.3191     494.6174   1261.5867 -35.27     1.182     1.125   0.0997        189     45.38971
 4.38    381.0164  20.2242     1355.904    323.8481 -82.32     2.248     1.374   0.0691        190     86.21469
 3.89    387.0502  19.5859     2440.906   1120.2247  86.45     2.740     2.203   0.0479        191     107.6746
 5.96    374.4207  20.8180     784.7346   1563.5935 -81.82     1.635     1.279   0.1340        192     96.80914
 3.50    387.4174  17.9194     11327.88    984.0757   8.44     1.860     1.695   0.0068        193     70.48958
 3.50    384.2396  20.0702      1562.48   1830.3179  16.01     1.452     1.374   0.0388        194     55.77219
 6.22    371.5791  22.1349     233.3079     52.3316   8.05     1.000     0.478   0.2272        195     48.82006
 4.64    385.3449  20.6643     904.0098    165.2072  68.46     1.532     1.327   0.0897        196     74.66411
 5.48    389.1773  20.2719     1297.631   1062.4883 -36.24     1.957     1.483   0.0882        197     105.3995
 3.92    384.4936  20.5280     1024.974    204.7382 -26.39     1.404     1.377   0.0642        198     60.63077
 3.96    382.9557  21.0901     610.7322   1253.9581   8.64     1.137     1.118   0.0904        199     50.84665
 6.86    383.5205  21.3198     494.2836   1795.1074  84.67     1.156     0.737   0.1574        200     71.62658
 5.07    392.5271  20.2885     1277.971   1805.7225 -36.17     2.111     1.589   0.0894        201     105.2077
 8.15    383.1138  21.5048      416.843   1051.7521 -81.82     1.054     0.648   0.2001        202      76.7978
 6.26    394.6886  20.4295      1122.27    693.1362 -48.35     1.660     1.373   0.1033        203     106.7326
 5.02    462.4604  18.1855     8865.677   1710.8243 -56.96     7.902     2.556   0.0312        204     254.3127
 3.50    399.2673  19.7384     2121.092    356.0075  24.78     2.094     1.398   0.0344        205     67.26379
 7.17    386.9988  22.3206     196.6346   1030.0178  31.21     1.016     0.392   0.2916        206      52.7955
 3.59    432.4780  18.3805     7408.095    386.4282  71.40     1.860     1.780   0.0107        207     73.02294
 4.37    390.9725  21.9117     286.5732     21.9219  -1.62     1.053     0.720   0.1651        208     43.57338
 4.71    394.5114  21.1535     576.1064    847.7771  -8.45     1.499     0.904   0.1155        209     61.29342
 3.50    438.5792  15.6535     91309.11   2029.8105   7.36     2.052     2.012   0.0010        210     79.89156
 6.51    402.2373  22.4793     169.9026   1767.9999   0.00     0.679     0.425   0.2504        211     39.17997
 4.80    424.9921  20.3310      1228.81    605.1092 -66.04     1.868     1.461   0.0794        212     89.88503
 5.99    406.9743  22.1468     230.7827    743.6935 -88.73     0.727     0.671   0.2238        213     47.56269
 5.53    413.4962  21.9661      272.558   1762.0509 -39.50     1.375     0.895   0.2774        214     69.62464
 7.57    412.4201  22.1787     224.0945    580.2028 -84.56     1.028     0.392   0.2632        215     54.30424
 5.00    408.4857  22.5597     157.7728    752.4601  64.56     0.500     0.498   0.1750        216     25.42332
 6.86    414.3544  21.4623     433.5135    127.6279  25.72     1.073     0.795   0.1808        217     72.18837
 8.51    409.3561  22.5322     161.8231     73.6791  46.43     0.581     0.330   0.2829        218     42.15982
 4.62    416.4099  22.3817     185.8818    873.7270  69.42     0.958     0.588   0.2259        219     38.66101
 4.25    425.6741  19.9583     1732.073    645.8036  22.24     1.752     1.360   0.0465        220     74.12109
 6.74    424.3543  20.8867     736.5944    658.7817  22.34     1.785     0.914   0.1415        221     95.97095
 5.70    422.3215  23.1485     91.73035    783.6660  44.43     0.572     0.336   0.3365        222     28.42414
 4.53    431.9495  21.3779     468.5193   1744.4257  65.50     1.155     0.946   0.1215        223     52.41153
 5.69    477.4317  18.7459     5290.894   1189.6262  12.51     2.678     2.521   0.0341        224     166.2266
 3.50    443.9356  18.7902     5079.359   1109.1060  16.91     1.678     1.619   0.0137        225     64.19075
 4.36    440.7294  20.4089     1143.801   1211.0142  22.73     1.666     1.371   0.0704        226     74.12109
 5.18    436.9987  21.1936     555.2145   1532.0546 -38.19     1.228     1.171   0.1373        227     70.20245
 3.50    438.2735  21.4168     452.0531   1048.1542 -17.22     1.446     1.255   0.1259        228     52.41153
 3.50    459.3797  19.2487     3329.905    940.3657 -64.24     2.722     2.465   0.0332        229     101.8917
 7.14    436.4827  20.9618     687.3505    715.2385  -2.16     1.283     1.011   0.1445        230     91.44449
 5.35    446.9224  20.8126     788.6447   1769.5176 -86.01     1.718     1.252   0.1216        231     88.29803
 3.65    451.1226  19.8263     1956.148   1061.6099   2.10     1.808     1.551   0.0383        232       69.042
 7.56    453.0514  22.1583       228.35   1285.4969 -88.65     0.780     0.500   0.2565        233     53.93102
 7.67    450.4881  22.4718     171.0748    689.4866 -45.33     0.501     0.498   0.2909        234     45.83255
 3.68    470.0931  19.4452     2778.487   1565.6835 -31.73     1.688     1.534   0.0261        235     66.66052
 4.56    457.7380  22.2881     202.6156   1969.4630  19.95     1.142     0.533   0.2208        236     41.19049
 3.72    469.9916  20.2724     1296.964   1414.5518  72.45     1.465     1.298   0.0488        237     58.25216
 6.07    477.0926  20.2653      1305.57   1149.1206 -79.16     2.047     1.447   0.0981        238     117.8831
 8.18    469.9482  22.2042     218.8832    613.4832  89.38     0.806     0.500   0.2958        239     59.62298
 5.68    473.2774  21.6628     360.3942   1839.6208  42.92     0.922     0.729   0.1602        240      53.1767
 8.09   1001.2986  22.5183     163.9081   2014.6526  42.62     0.568     0.338   0.2663        241     40.19781
 3.50   1488.7040  22.6712     142.3757   1147.7345  13.44     0.691     0.439   0.1454        242     19.06749
 3.50   1485.0111  19.2710     3262.056    694.5386 -50.08     1.571     1.541   0.0200        243     59.96079
 3.50   1484.4438  16.0369     64139.62    571.6934 -12.30     1.979     1.876   0.0013        244      74.3931
 3.50   1481.8912  19.5569     2506.854    999.3563  30.62     1.662     1.475   0.0267        245     61.62207
 7.18   1485.6067  22.1410      232.002    257.8102  18.19     0.780     0.446   0.2206        246      47.1361
 3.50   1479.0569  18.5933     6089.506   1831.3969 -60.50     1.687     1.637   0.0116        247     65.12789
 6.40   1479.2719  22.2982      200.736    751.9529 -14.46     0.726     0.677   0.2708        248     50.04586
 3.66   1444.3567  19.2794     3237.044    284.2863  56.24     1.634     1.554   0.0223        249     66.35683
 5.94   1443.2224  20.5548     999.9702     26.9301 -43.15     1.336     1.271   0.0944        250     86.91469
 6.43    877.3828  21.2308     536.5399   1571.9082 -42.56     1.256     0.960   0.1607        251     79.38431
 5.70    877.8453  21.9618     273.6412   1332.6335 -21.13     0.889     0.684   0.2018        252     50.84665
 8.08    874.8244  21.9102     286.9569    884.0001 -59.08     0.815     0.504   0.2191        253     57.90438
 3.50    872.7018  21.5459     401.3545   1177.5527  34.08     1.190     0.903   0.1128        254     41.67797
 3.50    871.2864  21.6236     373.6528   1740.7078  39.00     1.078     0.878   0.1108        255     38.13499
 3.50    864.2093  21.1122      598.462   1790.9937 -80.80     1.210     1.121   0.0816        256     44.94251
 7.23    865.7153  21.6447     366.4427    689.1591 -55.01     1.084     0.514   0.1826        257     61.62207
 6.40    863.4653  21.4195     450.9177   1055.7269  81.04     1.006     0.961   0.1677        258     69.62464
 7.32    862.6530  21.1280     589.7924    711.4678  46.43     1.388     0.879   0.1663        259     90.33334
 5.76    861.1992  22.2988      200.616   1370.2036  48.93     0.749     0.563   0.2256        260     41.67797
 6.06    858.0820  19.7117     2173.858   1144.3640  24.90     2.029     1.732   0.0639        261     127.9086
 9.28    861.6761  22.0885     243.4988    758.9995  28.26     0.906     0.212   0.2004        262     44.94251
 3.50    806.0956  13.2975     799628.6     51.3554 -24.14     6.313     5.767   0.0003        263     238.2377
 6.33    830.7728  19.2646     3281.525   1127.5105 -34.81     2.137     2.006   0.0489        264     147.6962
 7.94    849.3907  22.4052     181.9027   1229.7480 -18.56     0.752     0.448   0.3083        265     51.63502
 8.47    829.3912  21.1082     600.6622   1137.4692 -11.71     0.974     0.827   0.1550        266     85.74485
 4.38    824.9389  18.1345     9291.966   1347.4686  55.71     3.351     2.954   0.0181        267      154.905
 5.89    828.8445  21.1949     554.5586    992.6465  35.72     1.442     0.953   0.1514        268     77.32202
 4.85    826.4221  20.5731     983.2212   1084.3108   4.65     1.713     1.352   0.0910        269     82.38099
 3.50    840.0000  23.3236     78.06995   1462.0265   0.00     0.841     0.289   0.2339        270     16.81595
 6.75    827.1253  21.8072      315.524   1060.1503 -46.20     0.866     0.666   0.1993        271     57.90438
 7.06    852.3954  21.6389     368.4192   1332.7360 -17.62     0.945     0.638   0.1826        272     61.94898
 8.98    816.9374  20.8490     762.6423   1574.0288   8.47     1.399     0.680   0.1417        273      99.4845
 3.50    794.0126  14.1593     361564.7   1871.4940  -3.87     5.807     3.203   0.0006        274     193.2646
 3.50    816.0778  13.9119     454096.7    813.2519 -38.43     4.519     4.112   0.0004        275     169.7138
 9.31    839.3502  21.1549     575.3807    621.6631  44.18     0.891     0.520   0.1357        276     71.90802
 4.63    834.8345  19.8800     1861.693    555.1373 -86.99     2.229     1.697   0.0591        277     101.2953
 7.58    810.0130  21.3957      460.932    119.4686  26.35     1.050     0.653   0.1661        278     70.48958
 7.01    809.1938  21.6481     365.3201    107.6784   2.90     1.984     0.646   0.1478        279     49.71883
 6.33    849.3344  21.6958     349.6021    910.3207  33.35     1.110     0.725   0.2004        280     64.50464
 3.50    807.1247  20.7179     860.4827   1447.2010  19.81     1.382     1.194   0.0647        281     51.24235
 4.50    805.7755  22.4944     167.5566   1664.7714  46.18     0.750     0.553   0.2141        282     33.02587
 5.00    806.6771  23.0737     98.26892    658.6967 -46.07     0.559     0.342   0.2433        283     22.01725
 5.53    837.0159  21.8345     307.6715   1200.8015  19.92     1.189     0.724   0.2068        284     58.59787
 3.50    802.3553  19.0976     3826.995    305.2797   6.29     1.688     1.550   0.0180        285     63.55831
 6.13    799.7067  21.9835     268.2228   1130.3900 -72.24     0.928     0.631   0.2138        286      52.7955
 3.82    798.3151  20.5252     1027.574    222.5953  -9.51     1.362     1.267   0.0593        287     56.13318
 5.42    858.3296  20.7563     830.6182     84.2013  38.77     1.276     1.163   0.0976        288     74.66411
 8.24    790.9237  20.4415     1109.908   1804.6478   7.01     1.755     0.667   0.0981        289     100.2933
 6.41    789.4080  21.2064     548.7213   1954.7866 -31.37     1.380     0.835   0.1525        290     77.06036
 7.94    789.4638  21.3057     500.7537   1528.5065 -41.73     1.025     0.797   0.1733        291     79.89156
 4.58    788.5655  20.8504     761.6011   1376.2958  51.23     1.388     1.314   0.0989        292     69.33393
 5.58    787.4568  20.5904     967.6906   1184.2833 -19.55     1.492     1.390   0.1016        293     90.55666
 3.87    785.9064  19.0497      3999.59    787.2900  20.20     1.656     1.562   0.0189        294     69.62464
 7.55    852.2372  20.0452     1598.974    812.2521  84.00     1.662     1.359   0.0866        295      127.434
 3.74    787.0170  21.8033      316.665    862.4449 -68.46     1.002     0.978   0.1413        296     41.19049
 4.31    783.9318  19.9503     1744.926    933.4962 -74.02     1.684     1.459   0.0475        297     76.26997
 5.92    837.7012  21.5546      398.156    696.4888  12.41     1.008     0.941   0.1776        298     65.12789
 4.17    781.8224  22.3312     194.7231   1620.8645 -45.62     0.843     0.671   0.1942        299     34.81232
 3.50    793.8107  13.4839     673534.8   1878.6038 -83.13     8.284     5.954   0.0006        300     374.1141
 4.57    779.1378  20.9710     681.5648   1689.2435  61.04     1.250     1.184   0.1003        301     62.91952
 7.35    849.5854  21.7891      320.827    399.1388 -79.95     0.876     0.601   0.2018        302     59.62298
 6.53    777.3067  22.0355     255.6904   1225.1324 -31.93     0.884     0.594   0.2291        303     53.93102
 4.79    773.0032  20.6134     947.3914   1164.8923 -30.99     1.581     1.309   0.0892        304     77.84272
 5.39    773.6741  22.0512     252.0192   1785.5435  31.27     1.066     0.742   0.2291        305      53.1767
 5.40    770.3995  20.4027     1150.379   1947.0393  25.42     1.655     1.392   0.0874        306      92.5423
 6.27    770.2277  20.7370     845.4751   1927.5562 -60.77     1.333     1.247   0.1172        307     91.22334
 3.50    841.8734  16.4917      42192.4    372.1603  21.99     2.241     1.936   0.0021        308     81.64213
 3.50    768.2208  18.8352     4873.382    793.8867  54.42     1.780     1.627   0.0149        309     66.66052
 8.02    768.4950  22.3419     192.8116   1586.4937 -45.03     0.507     0.493   0.2581        310     45.83255
 7.77    764.9332  21.2149     544.4323   1753.3341 -70.23     1.050     0.843   0.1643        311     82.38099
 5.72    844.8180  20.7695      820.517   1809.5046  12.24     1.528     1.213   0.1160        312     87.60909
 8.49    760.0013  22.0822     244.9113   1977.5157  57.73     0.792     0.315   0.2109        313     47.56269
 4.78    845.6486  21.7842     322.2698   1052.4498  34.22     1.133     0.785   0.1713        314     50.84665
 3.50    753.5352  19.9132     1805.563    861.8187  11.33     1.565     1.391   0.0352        315     58.59787
 3.50    750.7202  18.9325     4455.614   1163.8752  38.94     1.715     1.585   0.0156        316     63.87531
 3.50    748.0423  20.2427     1333.032    347.2904  68.32     2.114     1.995   0.0663        317     81.39436
 3.71    746.6599  19.5657     2486.597    201.2393  13.43     1.610     1.470   0.0284        318     65.12789
 3.86    833.0647  20.1661     1430.391    726.3062 -51.83     1.472     1.407   0.0475        319     62.59768
 8.29    742.2305  22.0912     242.8868   1548.7632 -71.98     0.861     0.348   0.2291        320     51.24235
 3.50    728.6304  16.0210     65091.31   1346.6143  13.83     2.016     1.963   0.0013        321     78.61729
 3.50    731.7640  17.0141     26077.88   1177.9420  29.29     1.921     1.835   0.0031        322     74.12109
 3.50    736.4737  21.5679      393.323    981.9722   4.60     1.109     0.935   0.1082        323     39.17997
 7.55    734.7404  21.7954     318.9562    448.5146 -21.56     1.133     0.531   0.2270        324     66.66052
 5.37    732.2231  21.2142     544.7925   1126.8220  56.30     1.404     1.061   0.1159        325     58.12915
 3.63    723.8607  18.1990     8756.043   1276.5438  -6.82     5.877     2.024   0.0174        326     140.5487
 3.50    721.1459  17.9438     11076.07   1125.0989  56.76     1.858     1.815   0.0071        327     71.90802
 4.67    722.4964  20.9072     722.7762    305.0830 -51.87     1.370     1.303   0.1063        328     70.77554
 5.91    723.5607  21.6662     359.2817    253.1653  53.87     0.995     0.823   0.1833        329     60.63077
 6.91    722.2330  22.2427     211.2572    770.3755  73.25     0.760     0.451   0.2310        330     44.94251
 3.50    714.4827  19.7526     2093.444   1693.6685  51.76     1.538     1.469   0.0306        331     58.94156
 6.16    714.8568  20.7826     810.7128    919.2883   2.14     1.572     1.242   0.1300        332     97.01756
 7.22    713.1447  21.5437     402.1813   1335.6875  18.70     0.935     0.665   0.1716        333     63.55831
 5.18    709.9744  21.1796      562.427   1474.3412 -65.96     1.259     1.020   0.1281        334     66.35683
 5.94    706.6331  22.9834     106.7896    716.3162  46.98     0.584     0.329   0.2962        335     29.12608
 4.22    683.5277  21.1062     601.7762    895.8243  -0.68     1.208     1.047   0.0946        336     52.41153
 5.95    682.1358  21.8563     301.5734   1036.6012  38.85     1.172     0.677   0.2171        337     60.29671
 6.24    680.1354  21.7485     333.0376   1184.3301  13.55     0.998     0.744   0.1966        338     60.29671
 3.79    674.8370  20.4402     1111.257   1058.2676  56.26     1.495     1.328   0.0583        339     59.62298
 3.71    671.7878  19.8847     1853.708    234.4664  17.03     1.587     1.422   0.0370        340     63.23972
 4.92    671.6805  20.6426     922.3182    982.6715 -36.51     1.916     1.230   0.1004        341     85.27242
 5.92    666.9946  21.7331     337.8018    984.5021 -34.31     1.021     0.920   0.1508        342     46.90992
 5.17    671.0262  21.4415     441.8914   1434.9608 -83.51     1.339     0.868   0.1522        343     61.94898
 5.71    666.6066  21.0669     623.9502    995.7694  14.55     1.761     1.017   0.1492        344     85.74485
 3.86    663.0329  20.9238     711.8326   1744.4965 -42.42     1.599     1.271   0.0955        345     62.59768
 4.39    664.5038  22.3095     198.6492   1041.9802 -89.08     0.818     0.704   0.2085        346     38.13499
 3.50    658.7515  17.0340     25604.71   1462.7933  11.92     1.889     1.844   0.0031        347     73.84808
 6.07    662.9695  22.3204      196.672    425.5007  89.00     0.791     0.500   0.2380        348     43.10735
 6.17    661.9762  22.1616     227.6479    899.9340  44.46     0.905     0.525   0.2269        349     47.56269
 4.38    658.1915  21.2136     545.0953   1295.7434  45.18     1.206     1.019   0.1089        350     54.67493
 7.91    651.2997  22.3209     196.5825     91.6682  43.30     0.562     0.341   0.2193        351     39.69215
 5.46    649.5101  22.2308     213.5865    996.4734  88.32     1.056     0.499   0.2353        352     46.27115
 8.43    650.5098  22.2745     205.1641    110.4912 -44.91     0.503     0.497   0.2426        353     45.83255
 8.86    649.5038  22.2949     201.3474   1956.4946  45.02     0.510     0.490   0.2655        354     49.23206
 6.51   1303.7490  21.1527     576.5593   1818.9509  75.03     1.252     0.842   0.1417        355     75.20321
 5.33    617.7585  21.8011     317.2825    238.3468  58.77     1.015     0.921   0.2006        356     58.59787
 3.50    613.9269  18.7806     5124.805   2017.8744  56.68     1.660     1.614   0.0136        357     64.19075
 6.22    635.7822  21.6744     356.5782    630.4832  -7.93     1.247     0.672   0.1965        358     64.50464
 6.18    614.6657  21.8653     299.0809    344.8906 -65.37     0.907     0.705   0.1999        359     55.04311
 3.50    608.0667  18.0065     10454.15   1786.0872  46.56     1.808     1.743   0.0074        360     71.06036
 5.34    608.3660  21.7521     331.9347   1212.3641  24.37     1.237     0.911   0.2090        361     63.87531
 6.53    608.3623  22.7437     133.1807   1457.6943  47.43     0.577     0.332   0.2693        362     33.02587
 4.07    606.8798  20.9795     676.2626    480.0258  17.53     1.364     1.246   0.0963        363     59.96079
 5.97    606.9939  21.5352     405.3361    347.0199  -1.58     1.309     0.776   0.1810        364     67.56342
 5.50    605.7891  21.2826     511.5392    129.9168 -10.74     1.318     1.235   0.1674        365     78.87379
 6.50    606.5022  22.7569     131.5629    680.4874 -45.86     0.502     0.497   0.2968        366     35.95401
 4.59    603.8599  21.3721     471.0581    415.5907  21.63     1.135     0.996   0.1269        367     55.04311
 7.36    603.0170  20.4044     1148.579    394.6762 -23.52     1.635     1.089   0.1039        368     109.9026
 5.69    636.8337  22.4011     182.5781   1444.0271  36.63     0.944     0.461   0.2479        369     41.67797
 5.74    598.8437  22.0020     263.7006   1887.3071  58.33     1.208     0.673   0.1782        370     43.27989
 3.50    577.5103  13.4865     671902.5   1517.1985 -52.54     2.408     2.284   0.0001        371     92.10474
 4.71    592.7399  21.1779     563.3037   1886.2079   8.21     1.149     1.138   0.1182        372     61.29342
 3.50    577.7015  15.2890     127733.5   1865.4287  -8.11     2.073     2.056   0.0007        373     81.14582
 5.11    639.7656  21.0541     631.3173   1536.7620  57.60     1.562     1.121   0.1312        374     76.26997
 7.28    587.7084  22.7630     130.8253    113.6168 -41.20     0.578     0.330   0.2890        375     34.81232
 3.76    583.9879  21.0896     611.0585   1240.8992  35.42     1.443     1.084   0.0938        376      52.7955
 3.50    576.7157  16.5676     39344.13    711.9183  13.51     1.969     1.870   0.0021        377     75.20321
 5.20    580.3779  20.2078     1376.476    898.8638 -21.85     1.683     1.328   0.0689        378     87.37823
 3.50    576.0743  18.5818     6154.258    406.0890  27.67     1.744     1.621   0.0116        379     65.74523
 3.50    572.9794  17.7891     12772.11   1557.4213  76.50     1.847     1.792   0.0061        380     71.90802
 7.32    577.9515  20.6282     934.5999     99.1602  52.28     1.453     0.985   0.1147        381     98.66904
 4.85    579.9248  21.3741     470.1847    482.4049  65.32     1.121     1.037   0.1369        382     59.28325
 3.50    594.7149  20.9093     721.4281   1103.0275  74.39     1.295     1.148   0.0716        383     47.56269
 9.19    569.6783  21.9076     287.6484     86.6344 -43.33     0.586     0.328   0.1697        384     44.94251
 3.50    562.9997  19.1919     3508.588   1096.8718   3.24     2.346     2.210   0.0280        385     90.55666
 3.83    564.6166  19.9446     1754.156    516.1978  50.72     1.565     1.493   0.0368        386     59.38366
 4.23    557.6904  19.6667     2265.753    511.3543  31.53     1.619     1.530   0.0288        387     60.06699
 3.50    618.4713  16.9159      28545.5    386.7159  36.95     1.968     1.922   0.0029        388     77.06036
 5.78    561.9915  19.9457     1752.439   1662.8389 -57.17     2.046     1.588   0.0727        389      117.368
 3.50    559.8046  20.1884     1401.312   1241.2201  43.41     1.541     1.258   0.0424        390     54.67493
 3.55    556.9337  19.4014     2893.042    919.2565   2.08     1.559     1.530   0.0233        391     61.94898
 6.13    643.0975  20.5962     962.5591    211.3030  -2.22     1.453     1.243   0.1042        392     92.32378
 3.58    557.3806  20.2757     1293.117   1330.7441  16.21     1.502     1.283   0.0477        393     56.84828
 4.91    557.4345  21.6162     376.2185    451.6042  45.61     1.104     0.938   0.1641        394     56.84828
 6.37    556.0329  20.9640     685.9965   1917.2318 -46.72     1.805     0.943   0.1492        395     94.27221
 5.91    554.0110  20.8708     747.4399   1477.8682 -67.23     1.839     0.972   0.1293        396     88.98164
 3.70    554.6553  20.5066      1045.39    938.8872  25.30     1.449     1.203   0.0572        397     55.04311
 5.72    547.6714  20.5572     997.7657   1676.9399  42.19     1.744     1.353   0.1074        398     98.66904
 4.62    545.6970  22.0420     254.1681    681.8658 -69.27     0.941     0.683   0.1822        399     42.63621
 3.50    544.6736  21.4552     436.3361   1563.0192   5.36     1.195     0.963   0.1049        400     42.15982
 3.50    544.2238  21.9318     281.3053    164.1234 -22.96     1.240     0.774   0.1472        401     38.13499
 4.50    542.0450  21.0447     636.8408    970.9246  30.55     1.537     1.373   0.1250        402     73.29902
 7.87    543.1529  22.2540     209.0712    354.1595  47.56     0.762     0.570   0.3097        403     59.62298
 3.76    542.6533  23.0698      98.6283   1822.3032  47.07     0.569     0.337   0.2213        404      20.0989
 3.50    537.7213  21.1773     563.6362    833.2484  22.70     1.212     1.172   0.0892        405     46.27115
 4.27    535.5258  20.5720     984.2728   1542.9141 -40.06     1.429     1.299   0.0725        406     65.74523
 5.15    535.6721  21.4305     446.3768   1038.8423  62.51     1.117     0.996   0.1499        407     61.62207
 5.59    534.4493  21.6352      369.668   1964.4108  44.50     1.110     0.816   0.1732        408     58.94156
 3.50    531.0473  20.8525     760.1908   1835.9806 -65.98     1.376     1.121   0.0697        409     48.82006
 6.41    531.7992  21.0989     605.8064    332.8315 -27.68     1.617     0.822   0.1494        410     83.35595
 3.50    603.6813  15.4563     109496.5    157.6020  34.04     2.330     2.219   0.0013        411     126.5134
 7.45    530.3199  22.8861     116.8093   1264.6720  44.61     0.569     0.338   0.3343        412     35.95401
 3.50    522.9552  16.8857     29352.36   1103.8108  29.31     1.938     1.891   0.0028        413     75.20321
 4.63    526.6978  20.4942     1057.409    907.2650 -36.10     1.861     1.474   0.0888        414     86.44865
 6.99    528.4277  21.3701     471.9001    872.2320 -40.12     1.633     0.818   0.2089        415     90.77943
 5.32    523.0508  21.4222     449.8152   1200.7853  23.79     1.181     1.056   0.1602        416     66.35683
 5.27    518.9406  20.8350     772.5168    619.0013  16.43     1.605     1.191   0.1165        417      82.8699
 5.23    514.2360  20.3635     1192.619   1673.3867  20.66     1.649     1.562   0.0623        418     68.37601
 4.66    506.4077  19.6824     2233.255   1678.4257 -12.36     2.623     1.805   0.0555        419     114.2283
 3.55    513.6752  19.7288     2139.767    552.0630   1.98     1.503     1.435   0.0299        420     58.94156
 3.50    508.8032  19.3032      3166.95    899.0430  25.76     1.663     1.488   0.0212        421     61.94898
 6.72    509.5196  21.7850     322.0258   1952.1431 -55.70     0.902     0.689   0.2011        422     59.62298
 3.79    506.7321  21.1763     564.1552   1350.1960 -64.95     1.295     1.144   0.1016        423      52.7955
 7.09    507.2760  22.0763     246.2625   1926.0156   1.98     0.756     0.668   0.2523        424     57.20248
 3.63    503.4966  20.6184     943.0652    162.6341  45.38     2.397     1.173   0.0795        425       69.042
 4.50    501.1506  20.9172     716.1864   1022.3694 -74.82     1.899     1.181   0.1157        426     76.26997
 6.74    502.3650  21.9102     286.9712    722.1318 -13.80     1.069     0.421   0.1894        427     50.04586
 4.81    489.4378  20.7184     860.1246   1040.4272  67.00     1.699     1.199   0.0976        428     77.32202
 3.69    488.6781  20.2244     1355.699   1048.4701  37.41     1.433     1.391   0.0469        429     58.59787
 4.68    488.8909  21.5140     413.3303   1754.6143  64.39     1.122     0.929   0.1397        430      53.1767
 6.81    486.9879  21.7262     339.9423   1718.9164  60.34     0.796     0.761   0.1937        431     60.63077
 5.58    485.4906  20.8075     792.2947    241.2384  44.75     1.514     1.102   0.1112        432     81.14582
 6.46    486.2963  21.3823     466.6295    230.7698 -22.05     1.117     0.860   0.1660        433     71.34403
 3.50    484.3729  20.7264     853.7388    587.1591  -5.77     1.285     1.233   0.0626        434     49.23206
 7.08   1145.0044  20.8390     769.6407   1196.2550  81.72     1.687     0.904   0.1389        435     98.46411
 3.72   1462.3882  20.4146      1137.83    620.5593 -36.50     1.334     1.323   0.0536        436     56.13318
 7.26   1477.5061  21.8172     312.6237     64.9432  -1.77     0.770     0.500   0.1780        437     51.24235
 5.65    882.2071  21.6860     352.7804   1265.6992  15.19     1.023     0.875   0.1835        438     59.62298
 3.50   1449.2378  18.2117     8654.107   2036.9603 -82.50     1.669     1.635   0.0081        439     64.81702
 4.33   1461.7168  19.5612     2497.122    306.7383  57.85     2.130     1.661   0.0400        440     91.88519
 7.12    482.3438  21.6889     351.8278    167.8910  64.33     0.910     0.683   0.1972        441     63.87531
 6.08   1455.6101  19.8631     1890.854   1452.3297 -81.99     2.434     1.774   0.0820        442     142.8295
 3.95   1446.1143  19.9448     1753.835   1472.8912  -4.42     1.417     1.360   0.0386        443     62.27417
 6.41   1456.0022  22.1458     230.9766    242.5124   2.04     0.833     0.686   0.2571        444     54.67493
 6.60   1444.6796  21.7024     347.5062     99.1986  53.38     1.223     0.681   0.2102        445     67.26379
 3.50   1418.7833  18.4398     7014.033   1480.4592  71.45     1.759     1.699   0.0106        446      68.4544
 4.84   1407.0294  22.0474     252.8956    313.6223 -35.68     1.453     0.603   0.2200        447     51.24235
 3.61    894.8870  22.2082     218.0801   1318.1168  41.81     0.850     0.678   0.1518        448      30.4815
 7.85    894.3307  22.2100     217.7229   1722.6807  45.54     0.570     0.337   0.1954        449     39.17997
 6.53    893.0366  22.1164     237.3307    989.0447  44.17     0.926     0.526   0.2272        450     49.64063
 3.50    893.8351  15.7334     84832.34    134.2125  -5.34     2.162     2.039   0.0011        451     82.62581
 5.80    881.2982  21.4979     419.5201   1930.8470 -35.95     1.262     0.771   0.1670        452     64.50464
 6.22    899.0834  20.3621     1194.204   1137.4237  85.18     1.534     1.355   0.0918        453     100.8957
 3.90   1423.1409  21.1107     599.2991   1884.3975  50.39     1.211     1.147   0.0943        454     52.02472
 7.11   1404.2197  21.5428     402.5106   1965.0105  85.72     0.923     0.767   0.1831        455     67.86171
 3.50   1374.0619  14.0200     411047.3   1756.1310 -62.56     2.358     2.227   0.0002        456     90.10946
 3.89   1422.6364  21.3543      478.848   1455.9060 -42.32     1.249     1.092   0.1162        457     51.24235
 7.63   1430.6028  20.9299      707.876   1056.3966  68.90     1.352     0.960   0.1504        458     98.05299
 3.65   1426.8264  20.2364     1340.752    119.2739 -15.88     1.447     1.410   0.0472        459     58.25216
 5.80   1420.1810  21.0005     663.2866   1583.8712  13.26     1.441     1.046   0.1316        460     80.39561
 7.06   1420.4727  22.7780     129.0303   1663.5299  45.52     0.503     0.495   0.3298        461     39.17997
 4.11   1398.0371  19.6535     2293.529   1907.6724  73.65     1.609     1.466   0.0336        462     71.06036
 6.65   1416.8782  21.8755     296.2847    617.6486 -20.28     0.940     0.683   0.2198        463     59.96079
 3.50    893.7146  18.0889     9690.608   1562.0264  35.38     1.781     1.686   0.0077        464     68.74883
 3.96   1400.4038  20.2814     1286.299    607.6281  51.51     2.146     1.494   0.0677        465     80.14398
 5.09   1403.7468  21.2088     547.5066   1914.5999  39.74     1.585     1.031   0.1106        466      55.7683
 8.61   1479.5135  22.3704     187.8193    961.5162 -45.17     0.507     0.493   0.2750        467     47.56269
 6.97   1408.4677  22.3706     187.7816   1324.9774  -0.97     0.797     0.499   0.2799        468     48.40457
 3.50   1354.2034  21.4481     439.1929    602.9650  10.50     1.513     1.058   0.1227        469     49.64063
 5.21   1451.6433  20.7349     847.1422   1169.8247 -87.34     1.368     1.267   0.0995        470     77.58281
 3.50   1379.7213  16.5555     39782.97   1752.0096 -78.45     1.577     1.507   0.0014        471      50.4566
 5.73   1386.9547  21.0169     653.3204    643.8647 -34.46     1.490     1.077   0.1341        472     80.64646
 4.25    896.2793  19.9849     1690.175    691.8322  15.39     1.588     1.432   0.0464        473     72.18837
 5.38   1367.0814  20.0976     1523.642   1274.3254 -67.34     1.779     1.514   0.0709        474      99.4845
 6.57   1385.1825  22.2335     213.0519   1349.3051 -60.22     0.854     0.599   0.2711        475      53.1767
 3.50   1360.2783  23.2748     81.65479    246.6582  41.39     0.556     0.342   0.2071        476     15.56854
 8.50    898.7057  22.3327     194.4587   1174.6490 -42.22     0.567     0.338   0.2355        477     42.15982
 5.14    901.4642  21.5815     388.4128   1641.3525  22.54     0.963     0.961   0.1569        478     56.13318
 5.12   1354.6967  20.3857     1168.515   1382.2374 -50.06     1.639     1.498   0.0840        479     90.33334
 3.50   1376.0779  18.8255      4917.21    344.6836  27.89     1.673     1.630   0.0145        480     65.74523
 6.98   1354.8716  22.0210     259.1219   1873.8602 -51.32     0.817     0.686   0.2499        481     59.62298
 6.41   1384.8064  20.2921     1273.729   1397.0254   3.03     1.565     1.411   0.0912        482     106.9216
 3.50   1359.9601  15.3291     123101.9    757.7563  -6.89     2.095     2.069   0.0007        483     82.38099
 5.37   1341.6012  20.3614     1194.954   1266.9336 -20.31     1.816     1.467   0.0900        484     99.07761
 7.48   1385.8243  21.8402      306.067   1049.8522  43.21     0.776     0.574   0.1979        485     55.77219
 7.23   1386.5081  21.8054     316.0459   1383.3383  83.23     1.052     0.634   0.2291        486     66.66052
 4.19   1357.2312  19.1740     3566.895   1269.9532 -25.51     1.640     1.612   0.0232        487     76.26997
 6.79   1377.2507  21.6890     351.8137    983.2332  72.02     1.069     0.678   0.2020        488     65.43729
 3.85   1358.8125  20.7142     863.4553    872.2680 -56.55     1.625     1.269   0.0787        489     62.59768
 5.46   1331.3475  21.1983      552.822   1611.9878 -62.84     1.615     0.965   0.1514        490     77.06036
 3.50   1357.3623  21.1065     601.6184    955.2523   9.76     1.464     1.302   0.0980        491     54.30424
 6.99   1376.6257  20.8592     755.4475   1862.8265 -46.45     1.221     1.053   0.1279        492     88.98164
 7.17   1367.4327  21.2828     511.4061     95.3692 -42.70     1.121     0.960   0.1765        493     83.11328
 7.46   1360.2369  21.8600     300.5463    299.5299  80.71     1.000     0.479   0.2117        494     58.59787
 4.22   1292.3422  20.2694     1300.585   1073.6189  57.34     1.513     1.384   0.0574        495     68.74883
 3.50   1353.2950  17.7191     13622.29    202.4297   6.59     1.983     1.825   0.0060        496     75.47131
 3.91   1353.1534  19.6142     2377.977   1234.0133  18.21     1.523     1.512   0.0302        497     66.05173
 6.29   1388.7181  19.7910      2020.62   1492.6841  -8.75     2.824     1.628   0.0814        498     151.4769
 6.83   1358.9855  20.6278     934.9786    209.3074 -31.39     1.736     1.409   0.0786        499     67.65414
 4.40   1345.7582  20.8480     763.2968     66.5475 -43.73     1.313     1.105   0.0843        500     59.28325
 6.84    913.3713  20.6628     905.2528    210.1767  85.81     1.487     1.188   0.1225        501     102.0898
 5.75   1321.2252  20.5051     1046.765   1143.2583  70.97     2.111     1.247   0.1086        502     104.6302
 3.50   1329.3871  17.2956     20120.87   1846.5787 -87.16     1.880     1.805   0.0039        503     72.18837
 3.50   1339.5701  17.2375     21227.85    375.3857 -51.65     1.874     1.848   0.0040        504      77.8217
 7.78    903.5224  22.2817     203.8018    822.5112 -26.58     0.500     0.499   0.2442        505     45.83255
 6.96   1339.1055  21.7809     323.2472   1007.8411  47.48     0.842     0.661   0.1992        506     59.28325
 6.04   1312.1631  20.7667     822.6295   1211.0005  -0.99     1.439     1.180   0.1169        507     88.52649
 7.11   1345.3212  22.0245      258.281   1147.8298  59.52     0.764     0.659   0.2390        508     56.84828
 4.93    897.9649  20.8048     794.2643    662.1459 -32.11     1.337     1.225   0.0690        509     50.49133
 3.50   1330.1943  17.6335      14740.4    371.5293 -40.45     1.869     1.792   0.0055        510     74.81422
 7.28   1347.6033  21.5964     383.1417    614.7409  17.80     0.965     0.638   0.1846        511     65.12789
 3.50    901.4861  20.5643     991.2792   1679.3004 -59.36     2.308     1.548   0.0809        512     73.84808
 3.50   1336.3710  20.0004     1666.242    558.5528  15.26     1.456     1.294   0.0352        513     53.93102
 6.80   1325.0912  20.4292      1122.61   1258.2844 -21.08     1.391     1.216   0.0966        514     99.88973
 6.42   1317.4845  22.0378     255.1475    603.9891  85.50     0.822     0.692   0.2327        515     54.67493
 3.50    902.5829  19.2054     3465.218    439.2111  19.76     1.687     1.523   0.0195        516     62.27417
 4.06   1331.5588  19.6196     2366.333    173.8790  11.36     1.659     1.487   0.0331        517     72.18837
 4.51   1294.0847  19.4629     2733.589   1016.8682 -67.34     1.976     1.896   0.0391        518     98.46411
 5.78   1313.1722  22.4364     176.7451    474.8304 -49.62     0.754     0.565   0.2590        519     42.15982
 3.67   1305.2367  18.3129     7884.303   1260.8158  27.75     2.224     1.729   0.0111        520     80.89652
 3.63   1299.5156  21.7508     332.3507    353.4323  51.15     1.087     0.854   0.1297        521     39.69215
 6.53   1307.1785  20.7027     872.6033    216.0461  22.74     1.722     1.034   0.1215        522     97.64013
 5.35   1303.2061  20.2012     1384.913    191.3241  53.21     1.804     1.639   0.0816        523     104.0494
 4.38   1298.9481  22.3819     185.8384   1764.2991 -84.25     0.726     0.672   0.2034        524     34.81232
 5.08   1275.5917  22.5505     159.1154    587.2006 -19.38     0.765     0.446   0.2169        525     31.77916
 4.32   1291.4423  21.3321     488.7227   1137.2827   8.08     1.524     1.121   0.1419        526     63.87531
 6.13   1298.2634  21.2351     534.4128   1003.5593  60.29     1.165     0.922   0.1456        527     71.62658
 4.98   1289.4879  20.2467     1328.132   1738.5415  62.81     1.681     1.428   0.0713        528     87.14677
 5.94   1269.1410  21.2185     542.6334    130.2354  81.95     1.475     1.081   0.1692        529     84.55884
 4.71   1250.4540  18.7784     5134.949   1175.4047  57.81     2.529     2.313   0.0272        530     128.3815
 6.85   1286.7800  22.3431     192.5977     44.4092 -70.56     0.761     0.447   0.2509        531     44.49082
 6.00    905.1699  20.3791     1175.658   1303.3766 -86.60     1.831     1.495   0.1034        532      111.906
 3.50    902.3811  19.8780     1865.157    655.8610  -4.34     1.669     1.395   0.0353        533     60.63077
 6.83   1283.4608  21.7190     342.2103    269.0384 -63.94     1.048     0.654   0.2057        534     64.81702
 5.04   1268.2979  19.6826     2232.792   2014.2698  18.27     2.400     1.888   0.0591        535      121.428
 5.98   1268.7736  22.3962      183.407   1353.4056 -72.07     0.714     0.461   0.2320        536     39.17997
 4.09   1281.5425  20.7687     821.1726   1593.3981 -51.23     1.281     1.228   0.0761        537      57.5545
 7.07   1278.2078  21.2998     503.4733    263.0814 -87.39     1.259     0.705   0.1611        538     74.66411
 3.50   1267.4355  14.4573       274779   1072.6366 -47.89     2.223     2.149   0.0003        539     85.98009
 6.97   1275.3558  21.4024     458.0737   1209.1998 -51.29     1.199     0.663   0.1678        540     70.77554
 3.57   1266.2997  18.3090     7912.013   1206.2732 -89.30     1.735     1.647   0.0094        541      68.1587
 6.19   1266.0336  21.5517      399.248    339.2280  36.23     1.338     0.615   0.1711        542     62.91952
 4.88    911.8757  22.4008     182.6423    667.1704 -48.72     0.766     0.561   0.2138        543     35.95401
 3.50   1255.3805  20.6938      879.788   1875.0352 -32.30     1.369     1.290   0.0637        544     51.63502
 5.76   1191.6085  19.9135     1805.099    161.8480  36.33     2.501     1.539   0.0765        545     127.1166
 5.48   1244.5698  21.4146     452.9818    764.0414   0.76     1.110     0.913   0.1508        546     62.91952
 4.47   1246.1351  21.9704     271.4767    884.6017 -18.03     1.044     0.717   0.1780        547     44.49082
 6.28   1194.9836  21.1408     582.9031   1323.6985  -1.62     1.349     0.876   0.1431        548      76.7978
 4.47   1223.3561  20.2777      1290.65     74.5186  15.49     1.446     1.378   0.0586        549     69.62464
 4.76    910.8281  18.9208      4503.88   1480.6740 -10.95     3.747     1.965   0.0351        550     145.4916
 7.16   1180.4723  22.4826     169.3873   1367.5348 -45.80     0.507     0.491   0.2577        551     40.19781
 6.49   1226.0383  19.6961     2205.305   1173.7294  -1.40     1.990     1.807   0.0684        552     138.8134
 4.50   1227.5428  21.7147     343.5889    235.3216  30.93     1.025     0.804   0.1463        553     46.27115
 6.74   1195.7991  22.2363      212.507    612.3796 -72.58     0.735     0.453   0.2203        554     43.10735
 7.85   1134.9990  22.1559     228.8379   1531.3369   0.03     0.935     0.546   0.3001        555     63.23972
 3.50   1225.2253  21.6378     368.8032   1538.0930 -15.28     1.183     0.865   0.1184        556     40.19781
 3.82   1219.7798  20.8072     792.5753   1485.9938  78.87     1.928     1.256   0.0909        557     66.35683
 5.88   1206.5116  21.1521     576.8596   1669.1841  14.39     1.397     1.143   0.1578        558     83.83917
 3.50   1203.7036  14.6853     222736.9    876.9988  88.50     2.171     2.139   0.0004        559     85.27242
 8.75   1213.0074  21.9860     267.6086    576.4979 -57.67     0.791     0.316   0.1930        560     47.56269
 5.40   1195.9917  21.5117     414.2098   1264.9180  52.24     1.438     0.872   0.1779        561     67.86171
 8.37   1203.5000  22.2992     200.5414    116.4810 -45.59     0.509     0.491   0.2482        562     45.83255
 3.50   1200.9309  20.3638     1192.269    735.7869  13.11     1.417     1.297   0.0491        563     53.93102
 4.45   1190.4442  21.2362     533.8584   1245.4883 -62.64     1.214     0.967   0.1112        564     54.67493
 3.70   1180.0990  21.2440     530.0161   1925.3643 -58.79     1.165     0.983   0.0921        565     44.94251
 5.46   1198.5605  21.3158     496.1198    150.1897  18.11     1.127     1.069   0.1466        566     66.96284
 5.97   1191.8938  21.7071     346.0002    183.1359  48.04     0.899     0.861   0.1861        567     59.28325
 5.10   1186.2393  21.3196     494.3933   1991.6755  77.26     1.082     0.940   0.1280        568     58.25216
 4.10   1195.7655  20.1150     1499.412    844.1275  10.07     1.571     1.429   0.0504        569     69.62464
 3.90   1133.1025  19.1150     3766.289   1458.2815 -63.77     5.503     1.822   0.0402        570     139.3943
 3.50    916.1011  20.2051     1380.007   1025.6517  15.12     1.584     1.393   0.0456        571     57.90438
 3.50   1163.3942  13.8292     490016.1    281.5933 -21.05     3.412     3.195   0.0003        572     129.9453
 6.11   1160.1420  21.0812     615.7996   1059.5688 -77.75     1.323     1.029   0.1409        573     79.89156
 3.50   1177.4305  18.9055     4567.847    655.2114  43.03     1.653     1.619   0.0153        574     64.19075
 7.41   1181.6960  21.8941     291.2435   1813.9796   0.05     0.743     0.683   0.2223        575     59.62298
 3.77    934.8977  22.2700     206.0234     84.8400 -45.23     0.817     0.661   0.1607        576      30.4815
 6.77    920.2457  21.2011     551.4042    741.1536 -82.13     1.165     1.003   0.1623        577     82.38099
 5.96    917.9776  21.2162     543.7848   1570.5093 -64.67     1.293     0.910   0.1469        578     73.57407
 4.52   1188.4432  20.7607     827.2274    130.8442 -74.75     1.267     1.174   0.0822        579     62.59768
 6.30   1176.8278  21.5340     405.7745    468.1667   0.93     1.131     0.779   0.1776        580     66.35683
 6.86   1166.9249  21.8154     313.1576   1395.2257 -60.21     1.027     0.648   0.2193        581     63.23972
 3.50    914.1776  18.8307     4893.719   2010.9181  20.00     1.613     1.562   0.0140        582     62.91952
 3.50    914.0243  16.5509     39953.02   1417.4656   5.09     1.968     1.934   0.0021        583     77.58281
 3.58   1156.8619  19.0819     3882.745   1996.4360 -81.85     1.605     1.555   0.0179        584     63.87531
 7.16   1068.6460  22.1719     225.5027    649.3264  45.66     0.891     0.515   0.2597        585     53.93102
 7.24   1153.5875  22.1648      226.983   1044.7699  18.71     0.767     0.450   0.2296        586     47.98547
 8.49   1150.8196  21.7459     333.8519    823.6486 -28.04     0.736     0.646   0.2139        587     65.74523
 5.51   1161.2957  23.3881     73.56531   1747.3303 -43.10     0.559     0.342   0.4090        588     27.70443
 4.88   1144.1339  19.5556     2510.008   1183.0449  69.35     2.481     2.185   0.0551        589      127.434
 3.50   1139.0103  15.0531     158725.3     82.8511 -36.83     2.159     2.131   0.0006        590     84.79736
 7.84   1154.5505  21.9912     266.3263    435.4922 -40.55     0.507     0.491   0.1869        591     45.83255
 5.27   1072.8558  21.4048     457.0748   1654.8938  83.48     1.120     1.089   0.1540        592     64.81702
 6.40    927.4080  21.2436     530.2086   1276.8402  17.06     1.255     0.957   0.1605        593     78.35995
 4.16   1134.8341  20.9060     723.5801   1398.6111  -2.33     1.313     1.272   0.0900        594     59.96079
 5.81    943.6832  21.4338     445.0193   1058.7538  27.36     1.102     0.877   0.1574        595     64.50464
 8.08    933.6901  22.3240     196.0303   1368.3380  43.65     0.569     0.338   0.2255        596     40.69718
 4.85    942.5285  19.8516       1911.1   1180.9410 -25.89     1.894     1.674   0.0551        597     97.01756
 7.24    936.2890  21.6995      348.426   1394.7316 -72.50     1.042     0.642   0.2087        598     66.96284
 7.24   1087.0135  22.4860     168.8457   1525.2820  39.56     1.044     0.299   0.2891        599     44.94251
 3.50    919.8064  18.3950     7309.642    311.4557  23.03     1.769     1.628   0.0099        600     66.66052
 4.84   1114.4874  19.3617     3000.651    282.9086  74.18     2.421     1.890   0.0423        601     116.8505
 5.72    941.3688  22.9789     107.2385   1676.3018 -47.83     0.578     0.332   0.2879        602     28.42414
 6.18    938.4287  21.3886     463.9558   1734.3920 -63.05     1.174     0.860   0.1643        603     70.20245
 4.52   1180.4296  18.9584       4350.7   1773.4095 -67.80     3.420     2.165   0.0347        604     138.9589
 4.30    947.2519  20.7595     828.1146    270.3840  10.73     1.331     1.227   0.0812        605     61.94898
 4.41   1122.8240  20.9000     727.6321   1495.8961 -32.79     1.852     1.156   0.1082        606     72.46763
 4.28   1089.1261  22.0177     259.9031    488.2093 -48.56     0.803     0.688   0.1502        607     35.95401
 5.23    958.6729  21.5567     397.3906   2039.8280 -33.51     1.284     1.005   0.1830        608     66.96284
 6.49    957.9904  21.0191     652.0438    144.6361   6.56     1.210     1.067   0.1372        609     82.38099
 6.41    944.3438  20.9205     714.0035    105.6477  40.63     1.401     1.093   0.1364        610     89.66003
 4.53   1088.4594  21.5761     390.3723    377.7299 -66.34     0.977     0.944   0.1335        611     47.98547
 4.71   1060.8754  21.9169     285.1971    791.8093  27.86     0.953     0.725   0.1677        612     44.03449
 6.57   1103.2047  22.1566     228.7058   1178.8058 -45.66     0.765     0.562   0.2357        613     49.64063
 5.46   1101.0693  20.6138     947.1062   1007.8760  37.52     1.984     1.212   0.1103        614     96.18118
 3.50    974.4030  18.0356      10178.1    773.7845  26.80     1.769     1.674   0.0072        615     67.56342
 3.85    963.1602  20.8375     770.7091    867.7383  27.86     1.387     1.199   0.0786        616     55.77219
 3.50    957.7594  17.1792     22397.92   1421.3552 -21.16     1.890     1.849   0.0036        617     73.57407
 3.50    974.7702  20.1422     1462.215   1028.4717  51.03     1.502     1.440   0.0430        618     57.90438
 5.33   1090.6049  22.2190     215.9185   1319.1968 -31.87     1.344     0.437   0.2283        619     45.38971
 3.50    977.4626  20.6852     886.8101     86.5718 -42.70     1.509     1.232   0.0679        620     55.40885
 4.81   1102.3186  20.5832      974.114    759.8630 -17.02     1.355     1.247   0.0786        621     70.48958
 5.97    969.3508  21.4597      434.524   1503.7891   3.28     1.555     0.788   0.1873        622     74.93414
 3.50    980.9872  17.6838     14073.13     44.6317  20.28     1.953     1.795   0.0057        623      74.3931
 3.57    967.7394  19.8993     1828.938   1326.1924   8.40     1.553     1.362   0.0352        624     59.28325
 4.60   1081.0000  23.0467     100.7473    218.0015   0.00     0.836     0.289   0.2825        625     26.20576
 6.47   1077.7407  22.4135      180.512    217.9897  -0.62     0.661     0.438   0.2418        626     40.19781
 6.11   1080.0884  21.1979     553.0146    431.5353  28.14     1.252     1.027   0.1534        627     78.10176
 7.40   1080.5039  22.4116     180.8248   1955.4817 -46.79     0.502     0.497   0.2532        628     42.15982
 3.55   1050.5067  19.0157     4126.886    211.1532  12.11     1.733     1.636   0.0176        629     66.96284
 3.56   1086.1466  18.2467     8379.874    290.0449  14.30     6.666     2.196   0.0199        630     153.5956
 3.50   1081.4874  17.6756     14180.11    689.0072  47.77     1.833     1.810   0.0055        631     71.90802
 3.69   1071.8739  21.0923     609.4968   1370.5972  11.97     1.312     1.201   0.0941        632      52.7955
 3.50   1071.0991  18.8938     4617.181    282.5546  15.90     1.730     1.613   0.0155        633     66.05173
 5.89   1083.7874  22.5212     163.4625   1403.3541 -73.03     0.749     0.445   0.2637        634     39.69215
 8.49   1073.6718  22.3305     194.8447    984.6811 -45.45     0.569     0.338   0.2323        635     41.67797
 6.64   1056.6938  20.7668     822.6108      2.6385  89.27     2.893     0.645   0.1201        636     91.00166
 3.50   1062.9622  20.1556     1444.352    735.6487  31.01     1.484     1.394   0.0419        637     55.77219
 5.84   1068.5582  20.6036     956.0505   1755.2698 -86.78     1.950     1.039   0.1061        638     93.41126
 4.14   1064.2233  21.5688     392.9843    778.8161  21.60     1.245     0.871   0.1338        639     48.40457
 3.82   1008.0995  18.5579     6291.219   1745.9312 -68.10     2.432     2.135   0.0170        640     98.25877
 3.83   1058.3246  21.6977     348.9891   1644.2957  30.09     1.223     0.801   0.1341        641     43.10735
 3.50   1037.7349  19.3944     2911.718   1978.9686  -0.51     1.656     1.596   0.0238        642     63.87531
 6.14    981.4064  19.8726     1874.477    208.6624 -33.02     2.290     1.586   0.0765        643     132.1035
 7.99   1039.0354  22.3610     189.4628    837.5157  88.85     0.786     0.500   0.3238        644     56.49186
 4.92   1035.7625  20.0837     1543.138    118.0171  72.62     2.759     1.408   0.0767        645     108.9798
 4.58   1040.6974  22.0731     246.9884    176.0357  -6.07     0.729     0.667   0.1630        646     37.06055
 4.42   1048.1991  22.0742     246.7274    490.5346  -2.02     0.961     0.738   0.1856        647     42.15982
 6.56   1047.5922  22.1608     227.8192   1169.2842  10.10     1.019     0.465   0.2386        648     50.04586
 5.77   1042.4253  21.0304     645.2983    232.6830  14.42     2.229     0.789   0.1435        649     85.27242
 7.81   1000.7585  21.6758     356.0992    288.0641 -27.04     1.020     0.656   0.2193        650     71.90802
 3.50   1039.1023  19.6923      2213.01    670.7543   6.37     1.576     1.462   0.0293        651     59.62298
 4.26   1045.6620  21.0904     610.5675    913.4352   4.90     1.283     1.086   0.1005        652     56.49186
 6.71    995.4745  20.5359     1017.504   1224.2443  45.56     1.578     1.322   0.1167        653     109.3499
 5.78    981.5517  22.1766     224.5148   1084.1516 -14.94     1.236     0.395   0.2259        654     46.70563
 3.93    986.7762  21.4100     454.8744    873.6351 -75.93     1.230     1.085   0.1204        655     50.44785
 3.98   1042.2013  22.1615     227.6722   1438.9131 -60.59     0.986     0.744   0.1869        656     39.17997
 6.71   1038.4590  21.6865     352.6115   1662.7583  87.56     1.020     0.738   0.2044        657     66.35683
 3.50   1037.6975  19.6477     2305.821   1904.8623  69.07     1.473     1.384   0.0263        658     55.77219
 7.05    997.1686  21.2953     505.5907   1434.3270  28.83     1.199     0.773   0.1650        659      76.7978
 3.50   1035.4397  18.8381     4860.187   1135.1171  70.06     2.105     1.686   0.0167        660     74.66411
 3.50   1007.7703  18.3124     7887.495    816.7135  35.67     1.749     1.724   0.0095        661     68.74883
 6.24    995.0322  22.3866     185.0383    966.4775 -88.68     0.782     0.499   0.2557        662     43.57338
 4.95   1024.0732  21.8636     299.5361    437.2515  60.70     1.118     0.780   0.1886        663     52.02472
 4.50   1021.5085  21.0600     627.9369   1113.6133  69.50     1.467     1.074   0.1094        664     63.23972
 5.75   1037.3380  20.7157     862.2231   1640.1437  33.07     1.775     1.143   0.1166        665      92.5423
 3.50   1007.6356  18.3124     7887.616    679.7672  30.09     1.750     1.698   0.0094        666      68.4544
 3.50   1003.5710  16.1701     56737.66   1329.2930  34.78     2.016     1.955   0.0015        667     79.12946
 7.06   1021.8212  21.7283      339.298   1162.6676 -33.84     1.079     0.579   0.2024        668     63.23972
 3.50    998.4093  14.5656     248682.5    932.7040  65.01     2.145     2.114   0.0004        669     83.59791
 3.50   1000.9362  17.5920     15313.88    920.1531  53.33     2.158     1.949   0.0058        670     81.48792
 7.58   1010.3445  22.5291     162.2739    731.6910  46.65     0.571     0.336   0.2552        671     38.13499
 3.75   1004.7674  20.5650     990.6541     71.0960 -14.47     1.721     1.634   0.0776        672     70.77554
 4.57   1002.5247  20.9574     690.1271   1501.8159   6.74     1.796     1.493   0.1338        673     85.03522
