#   1 KRON_RADIUS            Kron apertures in units of A or B                         
#   2 MAGERR_APER            RMS error vector for fixed aperture mag.                   [mag]
#   3 Y_IMAGE                Object position along y                                    [pixel]
#   4 X_IMAGE                Object position along x                                    [pixel]
#   5 THETA_IMAGE            Position angle (CCW/x)                                     [deg]
#   6 FLUX_APER              Flux vector within fixed circular aperture(s)              [count]
#   7 A_IMAGE                Profile RMS along major axis                               [pixel]
#   8 B_IMAGE                Profile RMS along minor axis                               [pixel]
#   9 FLUX_RADIUS            Fraction-of-light radii                                    [pixel]
#  10 FLUXERR_APER           RMS error vector for aperture flux(es)                     [count]
#  11 MAG_APER               Fixed aperture magnitude vector                            [mag]
#  12 NUMBER                 Running object number                                     
 3.50   0.0002    181.0222   1105.8365 -40.31     490815.7     6.539     5.885     10.869     77.63923  13.8227          1
 3.68   0.0029     52.4050     61.7681  -2.27     28710.16     6.359     5.786     15.771     77.64801  16.9049          2
 3.50   0.0018     58.9521   1076.9418  81.32     47863.96     2.093     1.972      4.900     77.62167  16.3500          3
 3.50   0.0174     15.7237    983.4587 -87.90     4841.136     4.509     1.979      8.841     77.60409  18.8376          4
 3.50   0.0209     17.0120     89.4810 -42.63     4030.784     1.663     1.619      4.639     77.64801  19.0365          5
 3.50   0.0084     13.8143   1444.2383 -42.28     10089.11     1.721     1.697      4.443     77.65679  18.0404          6
 3.64   0.2112     16.2665    382.9738  86.43     399.1461     1.231     1.191      3.590     77.63923  21.5472          7
 4.95   0.8006     13.1674    839.5089 -76.27     105.2596     1.479     0.949      1.648     77.59531  22.9943          8
 3.64   0.4087      9.2333   1182.3411 -70.45     206.3173     1.026     0.964      2.834     77.64801  22.2637          9
 4.21   1.0188      5.6605   1467.9125   8.54     78.45191     1.152     0.903      3.566     73.59947  23.3135         10
 4.51   0.1895      3.6078    143.2684  59.55     386.9206     1.696     1.490      4.472     67.50071  21.5809         11
 5.88   0.5693      3.6479    183.5916 -38.45     129.1003     1.080     0.962      5.468      67.6823  22.7727         12
 6.99   0.3538      2.5114    843.4935  44.82     194.7456     0.507     0.493      2.824     63.43876  22.3263         13
 6.37   0.3447      1.8622    302.3619  20.33     191.8689     0.906     0.677      4.544     60.90522  22.3425         14
 3.91   0.0940     23.8545    365.4416  -3.18     896.5821     1.390     1.345      4.303     77.62167  20.6685         15
 0.00  99.0000     14.8386   1561.6169 -19.92    -86.75822     0.905     0.686     -5.660     77.65679  99.0000         16
 4.67   4.1283     17.1879   1213.4882  -0.33     20.42388     0.921     0.725      1.605     77.63923  24.7747         17
 7.39   0.3629     15.4944    192.9995 -32.51     232.2568     0.786     0.318      3.518     77.60409  22.1351         18
 4.18   0.2287     33.0747   1108.5681  65.68     368.5401     2.036     1.213      6.380     77.61288  21.6338         19
 3.82   0.1684     23.0219    381.4543   6.25     500.7715     1.319     1.170      4.416     77.66557  21.3009         20
 5.46   1.5122     22.9778    696.8055  -3.26     55.74364     0.886     0.748      3.438     77.62167  23.6845         21
 7.61   2.1126     20.6041    212.2110 -18.94      39.8884     0.744     0.450      3.037     77.59531  24.0479         22
 6.44   0.2795     23.9324   1451.8411 -46.75     301.6321     0.843     0.652      4.021     77.63045  21.8513         23
 4.88   0.2289     32.3874    325.0325 -26.40     368.3087     1.486     1.262      4.961     77.63923  21.6345         24
 7.47   1.2223     26.2151    701.0262  -0.99     68.97586     0.703     0.411      3.598     77.63045  23.4533         25
 6.50   0.4929     33.5743     14.7714 -89.15     171.0594     0.947     0.712      3.313     77.63923  22.4671         26
 3.57   0.9120     37.0450   1519.9745 -74.77     92.48261     1.093     1.076      2.883     77.66557  23.1348         27
 4.28   0.2628     38.0067   1169.0526  23.11     320.9998     1.223     1.198      3.982     77.69191  21.7837         28
 3.71   0.2439     41.6028    913.7512 -64.32     345.8577     1.133     1.039      3.545     77.68313  21.7028         29
 3.50   0.0019     79.0617    535.8607 -66.40     45359.73     1.966     1.931      4.941     77.61288  16.4083         30
 4.97   0.3055     43.5270    438.5287 -52.86     275.7114     1.481     1.242      5.177     77.56014  21.9489         31
 4.10  62.1575     38.6270   1224.5396 -37.16     1.356647     1.156     0.777      2.938     77.64801  27.7188         32
 4.55   0.3078     49.4868    263.5109  89.83     273.7489     1.455     1.089      5.281     77.57773  21.9566         33
 4.50  99.0000     41.5007    999.9727  -1.62      -31.043     0.790     0.500      2.572     77.57773  99.0000         34
 7.08  99.0000     42.5779    226.7772  19.95    -28.92542     0.748     0.450      2.443     77.63045  99.0000         35
 7.84   0.4300     45.7927    473.3825 -71.71     195.9884     0.746     0.449      2.922     77.60409  22.3194         36
 4.11   0.4398     49.4914   1433.9777  -4.26     191.6427     1.069     0.925      3.677     77.60409  22.3438         37
 5.09   3.6334     46.7959   1429.1587  44.33     23.21143     0.809     0.669      2.741     77.65679  24.6357         38
 5.94   1.4390     46.8517    664.8470 -43.30     58.60757     0.825     0.669      4.023     77.65679  23.6301         39
 6.42   0.2863     50.4846    119.9498   0.88     294.2942     0.780     0.500      3.649     77.59531  21.8780         40
 3.52   0.0517     74.1052    126.4799 -19.14      1628.28     1.475     1.433      4.163     77.56894  20.0207         41
 7.34  99.0000     57.4917   1240.0228 -32.67    -80.18949     0.781     0.319      2.740     77.60409  99.0000         42
 4.98   0.4358     64.9824   1146.2659   9.37     193.4804     1.374     1.141      5.300     77.64801  22.3334         43
 7.06   0.3344     68.4563     17.7707  88.90     252.1806     0.996     0.721      5.259     77.65679  22.0457         44
 0.00  99.0000     66.8790   1414.1798 -28.14     -16.4338     0.963     0.744      5.777     77.63923  99.0000         45
 6.93  99.0000     65.5014   1514.5054 -45.69    -178.5715     0.501     0.499      3.003     77.54256  99.0000         46
 5.53   0.5012     70.7447   1320.8502 -68.46     168.2221     0.911     0.682      4.336     77.63045  22.4853         47
 3.50   0.0012    120.9251    787.4896 -59.16      67413.1     2.018     1.992      4.865     77.56894  15.9781         48
 3.90   0.2086     81.3288    419.7149 -76.83     403.8084     1.520     1.278      3.978     77.56894  21.5346         49
 3.94   0.0885     89.6612    375.3916 -19.36     952.8467     2.301     2.014      6.585     77.68313  20.6024         50
 8.71   0.1816     75.8810     80.4187 -26.69     464.2553     1.370     0.840      8.220     77.64801  21.3831         51
 4.79   1.7186     78.7909   1031.8494 -33.64      49.0779     0.892     0.849      2.414     77.66557  23.8228         52
 3.50   0.0003    192.5951    316.2862 -64.39     288669.8     2.878     2.293      5.253     77.62167  14.3990         53
 3.50   0.0345     95.5876     54.3806 -29.57     2439.939     1.614     1.584      4.339     77.61288  19.5816         54
 5.86  99.0000     87.0195   1358.1309 -88.30    -72.88528     0.995     0.847      4.601     77.67435  99.0000         55
 5.84   0.5620     87.4903    757.1628  35.83     149.9385     1.165     1.017      4.533     77.58652  22.6102         56
 6.63   0.5197     82.9746    930.8279  20.66     162.2426     1.160     0.723      4.958     77.63923  22.5246         57
 6.93   0.6848     86.4810    862.1655 -47.77     123.0899     1.108     0.733      6.651     77.62167  22.8244         58
 6.86  99.0000     85.0348   1559.2076  52.97    -112.0524     0.930     0.470      3.760     77.63923  99.0000         59
 6.00   0.4249     90.8526   1043.8802  55.00     198.2666     1.397     0.799      3.266     77.57773  22.3069         60
 3.82   0.5778     90.7001    494.0876   0.64     145.7234     1.105     1.019      3.036     77.53377  22.6412         61
 4.28   0.1402     97.1019    451.1805 -12.65     600.8424     1.924     1.255      6.092     77.58652  21.1031         62
 5.06   0.3930     94.6267   1074.8350  39.51     214.5679     1.336     1.126      3.560     77.63923  22.2211         63
 7.44   0.7698     85.3500    923.3128 -46.64     109.4622     0.575     0.334      2.730     77.58652  22.9518         64
 6.97   0.7522     87.8495    810.6924 -59.25     112.0053     0.869     0.590      4.772     77.57773  22.9269         65
 6.33   0.4135     94.0801    387.5246  89.88     203.8215     0.774     0.499      3.539     77.60409  22.2769         66
 4.03   0.0032    233.9082    401.8713 -47.20     26575.62     8.632     7.090     22.769     77.57773  16.9888         67
 6.55   0.7061    101.8555    517.3245  20.24     119.3396     0.933     0.683      3.085     77.59531  22.8580         68
 5.90   0.3454    112.7964    268.6332  80.50     244.1387     1.522     1.118      5.344     77.64801  22.0809         69
 4.71   0.6062    107.3404    861.3599  41.75     139.0791     0.979     0.859      0.945     77.63923  22.6918         70
 6.49   0.4287    106.1678   1098.1515 -41.98     196.7352     0.806     0.676      3.854     77.65679  22.3153         71
 6.85  99.0000    106.9845   1420.9861 -44.46    -24.75289     0.881     0.534      2.000     77.63045  99.0000         72
 7.78   0.5151    106.4694    180.4571 -48.20     163.6029     0.503     0.495      3.016     77.59531  22.5155         73
 5.35   0.3601    114.2177    414.3000 -75.12     233.9773     1.174     0.927      5.099     77.58652  22.1271         74
 0.00  99.0000    109.9821   1513.4705   1.43    -137.9406     0.806     0.687      4.839     77.66557  99.0000         75
 3.50   0.3379    116.1276    989.3898 -72.21     249.6212     1.139     0.958      3.503     77.66557  22.0568         76
 4.15   0.3683    116.6369    152.4058  53.02     228.9042     1.006     0.952      3.801     77.63923  22.1509         77
 5.52   0.3299    116.3723     65.2133   7.35     255.5889     1.480     0.950      7.113     77.63923  22.0311         78
 3.50   0.0022    161.4548   1466.8241 -54.44     38146.31     1.934     1.900      4.738     77.66557  16.5964         79
 5.02   0.4615    125.2403    492.5927  -6.86     182.7065     1.464     1.092      3.484     77.64801  22.3956         80
 8.11   0.8062    117.6457    911.6918 -47.04     104.4856     0.575     0.334      3.449     77.56894  23.0024         81
 4.68   0.3687    130.2387    416.2955 -27.12     228.4497     1.014     0.997      4.723     77.56894  22.1530         82
 4.35  99.0000    127.1574   1476.9080  43.78    -80.04689     0.822     0.651      1.860     77.56014  99.0000         83
 5.12   3.5756    128.0846    884.0657 -58.07     23.55941     0.780     0.779      3.746     77.56894  24.6196         84
 5.84   0.3391    141.3550    884.3093  52.16     248.4862     2.131     0.964      4.910     77.57773  22.0617         85
 8.30   0.8908    134.6447     97.6783 -46.36     94.60011     0.581     0.330      3.489     77.59531  23.1103         86
 5.23   0.2551    145.7969    352.2505 -48.50     330.7167     1.407     1.153      5.491     77.68313  21.7514         87
 0.00   8.1010    138.1987   1599.6450 -72.96     7.874505     0.752     0.444      4.510     58.73951  25.8094         88
 3.50   0.0096    169.2841    875.6372 -78.34     8747.807     1.768     1.723      4.717     77.62167  18.1953         89
 3.99   0.4396    150.7436   1278.8497  28.32     191.7575     1.078     1.029      3.856     77.62167  22.3431         90
 4.29   0.1267    164.2198   1444.2903  61.79     665.2936     1.450     1.305      4.415     77.62167  20.9925         91
 3.87  99.0000    154.5441     80.6298 -48.01    -40.60986     1.066     0.917      3.473     77.65679  99.0000         92
 6.00  99.0000    155.1815   1578.5652   5.70    -43.51159     0.898     0.727      2.749     77.63923  99.0000         93
 7.51   3.0261    154.5055    822.5117  46.03     27.83183     0.501     0.498      2.013     77.55135  24.4386         94
 3.50   0.1531    165.7383    102.5978 -37.77     550.9887     1.311     1.165      3.697     77.68313  21.1971         95
 4.87   0.4271    165.0086    574.7706  86.48     197.4038     1.251     0.963      3.188     77.63923  22.3116         96
 7.70   0.2067    165.8022   1054.6754 -60.40     408.0872     1.211     1.000      7.269     77.65679  21.5231         97
 8.26   0.3068    159.3821    491.2143  17.93     274.8039     0.756     0.448      4.046     77.63045  21.9524         98
 5.10   0.9164    164.3577   1196.5062  18.24     91.91893     0.945     0.817      3.296     77.56014  23.1415         99
 4.96   0.6126    167.8831    649.7219  36.86     137.5399     1.237     1.028      5.249     77.58652  22.7039        100
 5.03   0.2842    168.4620   1367.5079  -4.70     296.5503     1.259     0.968      4.188     77.60409  21.8698        101
 6.77   0.4490    174.8292   1198.9620 -74.73     187.8177     1.100     0.850      6.493     77.64801  22.3657        102
 4.54   0.2764    179.3327    573.3319  24.33      304.815     1.714     1.330      5.063     77.57773  21.8399        103
 5.66   0.1976    185.8885   1353.4348 -69.02     426.5558     1.580     1.377      6.003     77.61288  21.4751        104
 4.12   0.0887    191.7545   1349.0994  -8.69     949.6888     1.394     1.366      3.966     77.54256  20.6060        105
 6.94   0.2407    189.5625   1026.0391  51.22     350.4493     1.298     1.107      7.629     77.66557  21.6884        106
 8.39   0.3388    182.3929     58.7790 -19.01     248.8261     0.766     0.444      4.263     77.62167  22.0603        107
 3.61   0.0235    209.8589    826.0873  -7.87     3590.277     4.937     2.269      9.564     77.59531  19.1622        108
 3.95   0.0282    229.0334    560.6039 -26.64     2987.012     3.951     3.606     11.380     77.64801  19.3619        109
 7.27   0.6701    186.4370    834.3389  -8.75     125.8214     0.995     0.478      3.245     77.63923  22.8006        110
 5.73   0.2281    194.2279    266.1493  -2.74     369.7943     1.598     1.112      4.874     77.65679  21.6301        111
 3.50   0.0008    258.9285    995.8074 -39.84     102355.5     2.157     2.062      4.907     77.66557  15.5247        112
 5.33   0.0730    207.8602    348.2912  42.92     1154.675     2.172     1.551      8.637     77.58652  20.3939        113
 3.50   0.0474    205.7459    547.4401  30.29     1779.179     1.440     1.435      4.257     77.62167  19.9244        114
 7.23   0.2225    193.8830   1158.3497  19.93     378.6631     0.901     0.693      5.408     77.59531  21.6044        115
 4.67   0.2466    202.5069    249.0628 -82.07     341.6942     1.245     1.125      4.391     77.59531  21.7159        116
 6.30   0.3945    195.0164    447.8040  -1.57      213.638     0.905     0.757      3.960     77.60409  22.2258        117
 3.50   0.0519    211.3949   1304.6354 -22.74     1624.387     1.484     1.447      4.121     77.63923  20.0233        118
 3.50   0.0010    264.9597     65.7597 -32.49     86269.18     2.095     2.035      4.933     77.66557  15.7104        119
 4.14   0.1618    209.9293    683.1187 -66.62     520.5666     1.588     1.287      4.515     77.57773  21.2588        120
 5.97   0.3413    205.0531    940.3129  79.60     246.8231     0.730     0.683      3.425     77.57773  22.0690        121
 6.18   0.4871    204.7234    935.2993 -17.45     172.9201     1.044     0.660      3.083     77.55135  22.4554        122
 5.76   0.5722    204.9661    182.0299 -44.92     147.3557     0.793     0.788      4.482     77.63923  22.6291        123
 6.06   0.0836    221.6865    344.0318  25.49       1008.2     2.076     1.969     10.734     77.63045  20.5411        124
 3.64   0.9091    208.3053   1224.1161  17.48     92.61901     1.017     0.915      3.302     77.53377  23.1332        125
 3.50   0.0383    223.2675   1224.5825 -89.29     2203.745     1.447     1.430      4.045     77.65679  19.6921        126
 6.36   0.7292    216.6158    881.3004 -56.94     115.5837     1.809     0.740     10.852     77.60409  22.8928        127
 6.23   0.2183    216.7369    739.7720 -48.77     386.1685     1.484     1.052      5.690     77.63923  21.5831        128
 3.50   0.0002    311.2113    437.7717 -43.93     352860.5     2.528     2.337      5.235     77.64801  14.1810        129
 3.50   0.1400    221.6353    773.3149 -28.64      602.169     1.304     1.232      3.615     77.63045  21.1007        130
 7.25   1.0862    213.9205    791.8632 -44.17     77.56349     0.851     0.667      3.712     77.57773  23.3259        131
 8.64   0.1993    220.8395    373.6221  32.45     423.0778     1.683     0.981      7.336     77.64801  21.4839        132
 7.72   0.1876    226.6158    323.3230 -86.04      449.622     1.792     0.855     10.282     77.65679  21.4179        133
 4.09   0.0587    243.0104    111.1028 -84.61     1434.673     2.358     1.744      7.104     77.59531  20.1581        134
 4.02   0.0252    254.5417    611.2194 -43.66     3343.952     2.738     2.260      7.261     77.65679  19.2393        135
 7.73   1.1276    220.6618   1401.3055  46.61     74.72506     0.567     0.338      3.402     77.58652  23.3663        136
 6.32   0.2154    229.1916    546.3879 -64.50     391.2881     1.265     1.034      5.390     77.59531  21.5688        137
 4.00   0.1477    238.3424    837.3022  -9.76     570.3144     1.711     1.461      5.587     77.56894  21.1597        138
 3.60  99.0000    232.0458   1551.7197 -75.01    -49.03049     0.719     0.670      2.330     77.59531  99.0000        139
 5.39  95.5254    238.9705   1477.4504 -68.12    0.8828573     1.289     0.924      0.663     77.65679  28.1853        140
 5.53   0.1425    251.0242   1371.4264  88.51     591.5983     1.875     1.660      6.984     77.63923  21.1199        141
 5.00   0.1257    249.4536    105.7782 -15.15     670.6723     1.367     1.268      5.156     77.65679  20.9837        142
 6.38   1.3562    247.8134   1412.9871  26.31     62.14804     1.222     0.976      2.632     77.61288  23.5664        143
 3.56   0.7442    252.4222   1351.3031 -18.77     113.2342     1.077     1.070      3.636     77.59531  22.9151        144
 4.93   1.0697    248.0549    561.1425 -45.10     78.78599     0.823     0.656      2.682     77.60409  23.3089        145
 5.40  99.0000    250.4485   1549.2814 -84.04    -76.68449     0.998     0.957      1.204     77.59531  99.0000        146
 3.50   0.0042    286.7189   1484.9951 -39.03     20258.99     1.874     1.841      4.620     77.63045  17.2835        147
 6.17  23.9309    248.9496    149.9729  73.74     3.524122     0.793     0.788      2.005     77.65679  26.6824        148
 6.83   1.1588    252.4687    693.5012  40.35     72.72285     0.503     0.496      2.449     77.59531  23.3958        149
 3.50   0.0198    281.0660   1520.9102  76.99     4255.777     1.639     1.588      4.392     77.60409  18.9776        150
 6.41   0.4443    264.1126    722.8807 -57.13     189.6405     1.243     0.947      4.576     77.57773  22.3552        151
 3.50   0.0003    350.4285    889.1489 -49.01     312372.1     2.387     2.221      5.078     77.65679  14.3133        152
 3.50   0.0014    317.8304    903.7720 -63.35     59327.51     2.038     1.981      4.853     77.64801  16.1169        153
 5.46   1.0251    264.5226    122.0393  -1.21     82.22523     1.080     0.952      4.614     77.61288  23.2625        154
 4.90   0.1620    270.1254   1272.1100   7.57     519.9347     1.506     1.316      6.215     77.56894  21.2601        155
 6.48   2.4621    261.2282   1207.9971   0.13     34.23436     0.689     0.420      2.801     77.61288  24.2138        156
 6.80   0.9065    267.1037   1386.8289  48.46     92.95324     0.839     0.668      3.075     77.58652  23.1293        157
 7.58   0.2831    268.0160    368.0384   0.94     297.9421     1.012     0.733      5.300     77.65679  21.8647        158
 3.50   0.0003    350.4937   1344.3156 -36.91     301365.8     2.394     2.229      5.042     77.54256  14.3523        159
 3.50   0.0056    302.1434    199.9518 -79.73     14929.66     1.813     1.801      4.765     77.63045  17.6149        160
 6.87  99.0000    268.3021   1308.6689  43.48      -27.005     0.562     0.341      2.844     77.59531  99.0000        161
 3.50   0.0469    288.8237    513.3386  27.69     1799.536     1.893     1.834      5.279     77.65679  19.9121        162
 6.27  99.0000    270.4909   1248.9762   1.18    -73.68225     0.770     0.500      2.962     77.60409  99.0000        163
 4.38   0.0878    296.6169   1412.0374 -41.70     960.7703     3.597     1.650      6.563     77.65679  20.5935        164
 7.97   0.4459    275.9687   1376.4888  89.22     189.0002     0.794     0.500      4.272     77.60409  22.3588        165
 6.89   1.1079    274.5126   1369.0352   0.02     76.06939     0.780     0.500      4.521     77.60409  23.3470        166
 3.50   0.0446    293.0799   1326.0524  -7.85     1887.934     1.499     1.464      4.137     77.58652  19.8600        167
 4.57   0.1655    292.5134   1474.2167 -17.53     509.2774     1.626     1.395      4.615     77.63045  21.2826        168
 6.58   0.9165    278.4937    555.5334  -0.01     91.95199     1.063     0.500      6.378     77.60409  23.1411        169
 7.55   0.2111    287.1521    413.4819  13.30      399.154     1.036     0.857      6.213     77.60409  21.5471        170
 7.25   2.4735    285.3535    336.7982  67.10     34.10292     0.735     0.659      3.364     77.67435  24.2180        171
 4.92   0.5741    291.3463    246.8294 -26.38     146.9045     1.209     1.045      3.603     77.65679  22.6324        172
 6.45  99.0000    286.9872   1349.7050 -88.74    -80.78426     0.744     0.675      1.142     77.61288  99.0000        173
 3.50   0.1368    301.2831    561.9075  57.68     615.7945     1.420     1.390      4.165     77.58652  21.0764        174
 5.46   0.1473    307.6686     83.4995  76.55     571.9243     1.953     1.350      8.037     77.58652  21.1567        175
 6.42   0.5146    294.5245    885.6899 -11.71     163.6924     0.953     0.939      4.711     77.56894  22.5149        176
 3.50   0.0086    321.1589    695.6109  55.20     9825.037     1.707     1.700      4.545     77.63923  18.0692        177
 3.50   0.0127    345.4642    865.4515  53.74     6641.249     2.524     2.088      5.268     77.61288  18.4944        178
 3.59   0.0902    320.7474    639.8264 -63.05     935.2209     2.503     1.668      5.799     77.65679  20.6227        179
 7.28   0.3416    310.3055    315.7304  75.59     246.6587     1.350     0.931      6.153     77.58652  22.0698        180
 4.10   0.0494    326.5276    593.7271   4.50     1706.558     2.087     1.959      6.126     77.57773  19.9697        181
 3.86   0.9101    308.7935    983.5371  25.15     92.68967     0.966     0.956      5.793     77.67435  23.1324        182
 5.26   0.5418    315.9427    225.0871  -1.04     155.5245     1.236     0.852      5.558     77.59531  22.5705        183
 0.00  99.0000    312.7872   1494.9622  -1.51    -88.77996     0.688     0.409      0.901     77.65679  99.0000        184
 5.10   0.2644    323.8518    954.0250  24.36     319.0115     1.570     1.202      7.861     77.66557  21.7905        185
 4.55   0.9331    328.4711   1544.5985 -22.93     90.38969     1.198     1.133      3.438     77.66557  23.1597        186
 7.60   0.9358    320.5096    574.5020  44.12      89.9963     0.501     0.499      2.203     77.55135  23.1644        187
 3.60   0.1863    331.2683     91.5539 -37.81     452.5114     1.251     1.148      3.761     77.62167  21.4109        188
 5.25   0.3599    323.9714    340.2361   1.18     234.2766     0.899     0.741      3.846     77.63923  22.1257        189
 3.50   0.0154    354.8637    430.0891  84.22     5462.176     2.035     1.846      5.208     77.59531  18.7066        190
 4.51   0.2544    334.1932   1438.9866 -61.97     331.1522     1.187     1.115      4.232     77.57773  21.7499        191
 0.00  99.0000    328.3133    242.3292 -44.21    -10.30375     0.567     0.339      0.000     77.56894  99.0000        192
 7.57   0.3473    335.0217    621.7671  89.09     242.7806     0.704     0.423      3.263     77.63923  22.0870        193
 5.84   0.4129    338.5684    804.0828 -10.93     204.1539     2.019     0.865      7.167     77.62167  22.2751        194
 6.27   1.0876    336.1012    811.3517 -21.42     77.41286     1.121     0.659      4.206     77.52497  23.3280        195
 7.84   1.0476    335.5740    609.2935   7.76     80.45023     0.983     0.481      5.895     77.60409  23.2862        196
 3.64   0.0954    349.0482     52.9581 -34.75     884.0795     1.397     1.349      4.204     77.64801  20.6838        197
 3.50   0.0083    367.2421    759.4966 -16.46     10184.12     1.788     1.731      4.621     77.56014  18.0302        198
 3.50   0.0217    366.4039    441.0595  60.32     3887.267     1.703     1.614      4.696     77.68313  19.0759        199
 6.04  99.0000    340.0346   1502.2819 -85.56     -35.0495     0.729     0.670      4.377     77.62167  99.0000        200
 3.50   0.0017    394.2231    229.6339 -61.52     49905.27     2.001     1.944      4.923     77.63923  16.3046        201
 7.16   0.2161    349.2558    918.5583 -43.59     390.0948     1.419     1.262      8.512     77.61288  21.5721        202
 5.32   0.3800    347.1980     40.6213 -70.01     221.8259     1.034     0.913      3.150     77.62167  22.1850        203
 3.50   0.0487    360.3920   1498.8724 -13.07     1732.753     1.705     1.432      4.419     77.64801  19.9532        204
 4.36   0.1624    374.3014    752.1323  56.57     518.7549     2.498     1.457      7.971     77.59531  21.2626        205
 4.77   0.2180    358.7290    531.6100 -31.96     386.9426     1.382     1.241      4.572     77.67435  21.5809        206
 3.63   0.2604    359.6933   1032.4904 -13.85     323.4667     1.267     1.224      3.870     77.56894  21.7754        207
 5.23   0.4375    362.5005   1414.1726 -86.10     192.5635     1.351     1.231      6.531     77.57773  22.3386        208
 0.00  99.0000    355.0646   1396.9675  60.64    -23.10248     0.773     0.771    -24.185     77.63923  99.0000        209
 8.72  99.0000    352.5162   1578.9824 -32.66    -95.72321     0.781     0.319      2.299     77.63923  99.0000        210
 6.61   0.8419    360.5316    368.4804  79.14      100.076     0.947     0.897      5.355     77.57773  23.0492        211
 4.38   0.1744    369.5655     69.7675 -54.66     483.5282     1.395     1.220      5.107     77.65679  21.3389        212
 5.83   0.2522    368.2738    208.4582 -81.93     334.0838     1.185     0.992      5.169     77.59531  21.7404        213
 3.66   0.1634    371.8491    990.9427 -12.33     515.8547     1.288     1.225      3.852     77.62167  21.2687        214
 3.96   0.2472    372.4417   1082.3573 -12.91     341.1004     1.515     1.457      4.331     77.63923  21.7178        215
 0.00  99.0000    365.1463    940.1025 -44.47    -84.02243     0.827     0.666      0.000     77.56014  99.0000        216
 3.50   0.0123    396.2050   1459.7307 -71.23     6844.474     1.701     1.671      4.377     77.66557  18.4616        217
 3.62   0.3623    374.3093     85.4302 -68.26      232.613     1.049     0.957      3.256     77.60409  22.1334        218
 3.50   0.0103    397.1697    352.8683 -62.71     8151.011     1.731     1.677      4.632     77.63923  18.2720        219
 3.50   0.0018    418.7024    431.5961 -53.88     45862.84     1.960     1.933      4.804     77.61288  16.3963        220
 4.67   0.4183    381.4783     65.5865  33.45     201.6114     1.422     1.131      4.742     77.65679  22.2887        221
 4.31   0.3082    379.1620    123.8833 -45.19     273.4797     1.160     1.102      4.020     77.62167  21.9577        222
 8.58   0.3723    374.0639   1344.7878   1.89      226.548     0.938     0.750      3.867     77.67435  22.1621        223
 6.86   0.3459    381.7127      9.4485  69.49     243.6099     1.231     1.120      7.385     77.58652  22.0833        224
 4.83   1.0184    379.1750    510.5343 -33.43     82.79533     1.023     0.805      3.186     77.63923  23.2550        225
 3.50   0.0530    392.8817   1087.1392   6.31     1590.332     1.464     1.452      4.172     77.57773  20.0463        226
 3.50   0.0038    414.6595    835.7791 -87.54     22042.31     1.861     1.824      4.751     77.64801  17.1919        227
 4.67   0.1279    395.7360    625.2922 -84.56     659.2549     2.068     1.808      6.229     77.61288  21.0024        228
 4.31   0.6894    388.0979   1194.0056 -35.06     122.2461     1.118     1.051      3.207     77.60409  22.8319        229
 4.90   0.6174    388.7987    259.2574 -22.61     136.6356     0.937     0.845      3.981     77.68313  22.7111        230
 3.59   0.6779    395.6325    976.0615 -62.57     124.3563     1.294     1.101      3.771     77.63045  22.8133        231
 5.84   0.1738    402.6347    525.0397  64.46     485.2924     2.007     1.236      6.617     77.65679  21.3350        232
 0.00  99.0000    389.9111   1166.6669  82.68    -204.7087     0.731     0.650      0.000     77.59531  99.0000        233
 5.42   0.3606    390.9950     93.6829  -2.17     233.7397     1.145     0.767      4.805     77.62167  22.1282        234
 5.30   1.6120    391.8295    682.1611  45.39      52.3122     0.806     0.665      3.214     77.64801  23.7535        235
 5.85  99.0000    390.4073   1063.8210 -19.23    -8.461693     0.736     0.453      3.403     77.62167  99.0000        236
 3.50   0.0006    460.3263    806.0084 -44.64     142015.1     2.174     2.083      4.808     77.65679  15.1692        237
 7.62   0.1393    410.8039      1.7281 -86.84     470.7933     2.264     0.559      7.751     60.39931  21.3679        238
 5.59   0.8336    400.5119    810.9987  63.07     101.1198     0.999     0.673      4.180     77.62167  23.0379        239
 5.11   0.9397    412.4912   1560.8536 -61.91     89.67151     1.786     1.004      4.126     77.59531  23.1684        240
 3.52   0.2945    406.1577    280.5831 -61.55     286.2829     1.142     1.014      3.506     77.63923  21.9080        241
 3.50   0.0208    423.2345    924.7849   9.66     4051.959     1.601     1.597      4.459     77.63923  19.0308        242
 6.00   0.1864    420.4319    132.8687 -27.38     452.3918     2.661     1.886      8.659     77.63045  21.4112        243
 3.50   0.0052    436.9875    250.2835  64.68     16297.35     1.841     1.824      4.785     77.63923  17.5197        244
 5.37   0.3555    414.3479    557.6837  74.95     236.9667     1.626     1.253      4.003     77.57773  22.1133        245
 4.53   0.0923    419.8245    157.4588  31.43     914.0552     1.965     1.661      5.861     77.66557  20.6476        246
 3.50   0.3453    418.3754    772.9217 -64.50      244.167     1.309     1.134      3.935     77.63045  22.0808        247
 4.87   0.3577    417.9241   1202.9960 -69.00     235.7567     1.158     1.150      3.280     77.65679  22.1188        248
 5.67   2.4277    419.0369   1579.2294 -64.75      34.7309     1.083     0.984      2.051     77.63923  24.1982        249
 6.35  99.0000    416.3668    938.8957  38.22    -17.17646     1.261     0.727     -6.453     77.57773  99.0000        250
 5.72   0.1441    429.8091    717.6165  55.01     584.7914     2.286     1.725      5.573     77.59531  21.1325        251
 4.53   0.2047    425.8258   1177.8335  37.28     411.8329     1.797     1.380      4.874     77.63923  21.5132        252
 8.36   0.3592    413.5051    178.4913 -45.92     234.4516     0.501     0.499      2.937     77.55135  22.1249        253
 4.20   0.0205    466.8871    849.0101  22.49     4108.338     8.631     2.429     20.997     77.63045  19.0158        254
 0.00  99.0000    417.3970   1295.2036  17.97    -143.5652     0.762     0.451      4.572     77.61288  99.0000        255
 4.71   2.5082    419.9548   1090.9780  44.64     33.61995     0.782     0.763      2.879     77.64801  24.2335        256
 3.50   0.5608    423.3932   1062.3090 -12.89     150.2952     1.067     0.947      2.944     77.60409  22.6076        257
 3.50   0.0683    432.1249   1420.5641 -14.37     1233.473     1.485     1.348      3.942     77.61288  20.3222        258
 3.50   0.1689    433.0948    149.3635  27.67      498.796     1.303     1.231      4.086     77.56894  21.3052        259
 4.38   0.5047    425.3532    298.3142 -55.62     167.0113     0.976     0.924      3.929     77.61288  22.4931        260
 3.50   0.0160    449.3134     19.5175  79.54     5276.671     1.697     1.618      4.732     77.57773  18.7441        261
 4.28  99.0000    425.8291   1007.1801  45.92    -1.286516     0.782     0.684      4.157     77.63923  99.0000        262
 6.46   0.4735    434.7358    118.2145 -14.46     178.0543     1.345     1.271      7.507     77.63045  22.4236        263
 7.60   0.5004    425.6917    239.6654 -43.70     168.4341     0.567     0.339      3.401     77.60409  22.4839        264
 4.11   0.0989    444.1478    120.4551 -35.94     852.1833     1.698     1.528      5.294     77.61288  20.7237        265
 3.50   0.1616    439.0670    303.9563 -83.47     521.6315     1.232     1.225      3.644     77.62167  21.2566        266
 5.59   1.5235    429.2177   1307.1603 -38.83     55.34886     0.807     0.673      3.246     77.64801  23.6922        267
 4.53   2.8690    432.5266    404.7667 -70.31     29.37902     0.964     0.910      2.514     77.61288  24.3799        268
 4.73   0.8591    432.8159    351.6668 -60.34     98.18281     0.947     0.890      3.187     77.66557  23.0699        269
 3.50   0.0146    456.8181     32.7335 -46.68     5783.602     1.680     1.666      4.658     77.63923  18.6445        270
 3.63   0.0995    446.5810    882.2385   5.63     847.9543     2.634     1.650      8.658     77.65679  20.7291        271
 4.13   0.0400    495.3749     81.0525 -72.67     2109.945     2.894     2.604      8.903     77.67435  19.7393        272
 7.07  99.0000    437.0200   1380.9813 -37.80    -97.14297     0.808     0.779      2.436     77.63045  99.0000        273
 4.77   1.3713    442.9376    653.5607  68.37     61.48001     1.015     1.000      2.921     77.63045  23.5782        274
 4.62   0.2307    442.8451    172.6565 -62.31     365.4415     1.116     1.013      4.432     77.62167  21.6430        275
 5.99  99.0000    436.5044     52.4720 -49.04    -36.45862     0.502     0.497      1.879     77.58652  99.0000        276
 5.83   4.2123    441.0673    958.0090 -28.05     20.02584     0.791     0.768      2.728     77.67435  24.7960        277
 5.57  99.0000    444.5764   1503.9631  -1.95    -47.55452     1.086     0.934      2.100     77.63045  99.0000        278
 3.86   0.0058    532.1016    517.1438  27.64     14645.65     5.815     4.781     14.494     77.55135  17.6357        279
 3.50   0.0448    462.7155    466.8858  48.38     1881.515     1.566     1.468      4.404     77.56894  19.8637        280
 3.75   0.6029    452.0206   1531.8784  -2.25     139.8436     1.100     1.075      3.600     77.63923  22.6859        281
 4.64   1.0152    453.4803   1222.8856 -38.14     82.98909     1.148     1.028      6.889     77.57773  23.2524        282
 0.00  99.0000    450.7772   1129.9885 -89.03    -119.8665     0.923     0.760    -24.094     77.62167  99.0000        283
 3.59   0.2470    460.0517   1094.5823  38.36     341.4394     1.462     1.254      4.071     77.64801  21.7167        284
 3.58   0.0548    470.5653    252.6783  51.79     1537.427     1.802     1.450      4.586     77.62167  20.0830        285
 0.00  99.0000    449.5158   1353.0117   0.90    -112.7327     0.774     0.500      0.000     77.63045  99.0000        286
 4.34   0.2412    460.4968    723.4984 -11.52     349.2744     1.812     1.296      4.441     77.56894  21.6921        287
 3.50   0.0353    471.0944    733.2202 -22.49     2387.087     1.539     1.498      4.457     77.61288  19.6053        288
 5.65   0.3730    472.3067   1131.0845  83.07     225.8284     2.225     0.835      5.073     77.56014  22.1656        289
 7.38  99.0000    458.1744   1383.8328 -46.10    -26.48034     0.754     0.568      4.226     77.62167  99.0000        290
 4.30   0.1321    488.1921    838.0147 -89.19     638.0249     3.059     1.144      6.624     77.58652  21.0379        291
 5.41   0.9036    466.0153   1196.9625  69.90     93.33035     1.187     1.155      4.205     77.65679  23.1249        292
 3.50   0.0293    476.9968    921.4108 -29.52     2875.076     1.554     1.492      4.272     77.60409  19.4034        293
 5.31   0.4838    464.7791    559.6370  29.06     174.3032     0.976     0.941      4.983     77.65679  22.4467        294
 6.72   0.4232    464.5786    127.0419   1.49     199.2674     1.135     0.944      6.490     77.64801  22.3014        295
 4.29   0.0426    495.0847   1185.2677 -27.37     1975.991     3.570     2.495      7.701     77.58652  19.8105        296
 3.79   0.0832    477.1317   1275.4792  28.82      1013.15     1.446     1.376      4.315     77.57773  20.5358        297
 5.98   0.3167    471.8902    780.0573   2.74     266.0822     1.088     0.935      5.150     77.58652  21.9875        298
 7.44   0.2797    487.8899    422.9886 -48.30     301.3924     1.701     0.984      5.521     77.62167  21.8522        299
 3.60   0.3657    478.1534    680.9650 -64.90     230.6048     1.461     1.071      3.918     77.65679  22.1428        300
 4.00   0.8647    475.0726   1166.8925   1.25     97.45127     1.114     1.099      4.122     77.59531  23.0780        301
 6.34   7.8085    468.3778    662.1902  17.81     10.79683     0.748     0.449      4.489     77.63045  25.4668        302
 3.50   0.0685    483.0456   1069.0903  -3.08     1230.387     1.380     1.345      3.817     77.57773  20.3249        303
 6.47   1.3533    480.0155   1518.1871 -36.50     62.29738     1.487     1.001      3.050     77.63045  23.5638        304
 5.52   0.4189    480.2343   1308.2384   0.78     201.2681     1.206     1.072      4.279     77.63923  22.2906        305
 3.50   0.0072    511.5095   1300.7717 -86.57     11647.66     1.783     1.771      4.626     77.60409  17.8844        306
 4.18   0.0722    503.2634    761.2393  -9.87     1168.444     2.289     2.038      7.156     77.63045  20.3810        307
 5.85   0.7022    485.3267    826.9921  67.42     120.1009     0.897     0.684      3.176     77.65679  22.8511        308
 3.78   0.0352    514.5527   1459.6421  24.54     2397.323     4.804     1.835     10.774     77.64801  19.6007        309
 5.00  99.0000    492.2603    572.8713 -26.66    -83.19708     1.045     0.854      4.509     77.60409  99.0000        310
 5.07   0.2630    500.9030   1308.7729 -78.62     320.3177     1.327     1.225      4.911     77.58652  21.7860        311
 3.50   0.1158    501.1404    862.1825  21.91     728.0555     1.340     1.317      3.645     77.63045  20.8946        312
 4.66  99.0000    494.4830   1419.8359  -6.11    -9.079807     1.068     0.948      3.028     77.63045  99.0000        313
 3.71   0.3008    497.0426    364.6630   3.18     280.2222     1.185     1.114      3.711     77.62167  21.9312        314
 3.60   0.0462    512.4128   1308.8362  87.94     1825.006     1.482     1.437      4.469     77.64801  19.8968        315
 3.50   0.0003    586.9171   1314.4430 -43.15     323968.4     2.422     2.258      5.063     77.60409  14.2737        316
 4.29   0.1111    508.9503    162.6882  -5.14     758.6819     2.454     1.217      5.378     77.59531  20.8498        317
 7.32   1.1826    504.5137    324.4970  71.03     71.20798     0.916     0.902      2.516     77.54256  23.4187        318
 4.20   2.1103    502.0302    441.3327  14.30     39.95448     0.975     0.750      3.395     77.63923  24.0461        319
 3.92   0.1253    512.9186   1177.8134 -27.30     672.9017     1.342     1.259      3.691     77.64801  20.9801        320
 5.02   0.6020    509.0863    451.9476  35.30     139.9674     1.219     1.128      2.962     77.58652  22.6849        321
 4.32  99.0000    504.1009   1567.6394 -14.11    -129.7478     0.954     0.745      3.476     77.56014  99.0000        322
 4.03   0.1524    518.2291    640.3262 -26.69     553.0993     1.532     1.378      5.185     77.61288  21.1930        323
 6.90  99.0000    508.3430    306.9761  -0.24    -33.84938     0.744     0.651      0.513     77.64801  99.0000        324
 4.50   2.1004    517.4140   1517.7860  70.71     40.13821     1.137     1.066      2.358     77.63045  24.0411        325
 4.69   0.3243    519.9241    852.2421   0.04     259.9049     1.235     1.187      3.476     77.61288  22.0130        326
 7.17   0.2780    516.0298    165.1891  53.66     303.3465     0.919     0.470      5.515     77.65679  21.8452        327
 7.39   1.2927    519.3243    580.9985  -2.84     65.23841     0.742     0.671      3.558     77.65679  23.5137        328
 6.49   1.2761    527.9760    163.3041  59.16     66.04941     1.193     0.695      3.832     77.61288  23.5003        329
 3.50   0.0523    539.3113    998.3491  74.63     1611.705     1.483     1.429      4.217     77.58652  20.0318        330
 3.50   0.2991    535.1611    402.8271  28.42     281.9698     1.644     1.292      4.947     77.66557  21.9245        331
 3.50   0.0002    630.2494    481.5379 -32.96     397735.5     2.814     2.630      5.828     77.62167  14.0510        332
 3.67   1.0542    543.0117    932.6339 -65.99     79.99252     2.242     0.933      3.289     77.64801  23.2924        333
 4.27   3.2519    530.8337   1565.1139  31.17     25.92203     0.869     0.842      2.349     77.62167  24.5158        334
 3.50   0.0115    571.8231   1241.3000 -77.75     7299.979     2.038     1.669      4.636     77.57773  18.3917        335
 3.50   0.0369    558.0266   1040.2273  -7.54     2283.614     1.649     1.507      4.303     77.63923  19.6534        336
 4.78   0.9071    545.2867    849.4893  -7.45     92.87567     0.980     0.943      3.758     77.57773  23.1302        337
 5.14   0.0616    573.6470   1335.1353  51.49     1368.921     2.340     1.518      6.995     77.61288  20.2091        338
 3.63   0.0572    570.2410     44.1226  49.86     1473.106     2.383     1.604      5.493     77.61288  20.1294        339
 3.50   0.7456    554.9999    777.1362  23.72     113.1493     1.100     1.075      3.362     77.68313  22.9159        340
 5.14   0.8199    558.2373   1067.7279  74.41     102.8278     1.376     0.874      3.521     77.63045  23.0197        341
 3.50   0.0088    579.6503    143.1599 -48.59     9607.311     1.725     1.693      4.673     77.63045  18.0935        342
 3.66   0.0180    595.7372    781.1780 -56.39     4689.608     3.984     3.666      9.706     77.65679  18.8722        343
 3.55   0.0573    570.7166   1447.0137  21.20     1471.751     3.129     1.935      6.946     77.64801  20.1304        344
 6.11   1.5607    552.7918    964.5013   0.24     53.99519     0.952     0.725      3.138     77.59531  23.7191        345
 3.50   0.0087    581.1983    317.4514  32.75     9649.785     1.792     1.741      4.731     77.68313  18.0887        346
 6.43   0.7613    558.6420   1404.0443  15.36     110.7601     2.178     0.923      0.277     77.64801  22.9390        347
 5.50   0.8905    553.9773    804.0143 -87.40     94.66065     0.784     0.775      4.251     77.62167  23.1096        348
 4.29   0.1859    563.7604    137.6717 -27.73     453.4642     1.275     1.214      3.783     77.63045  21.4086        349
 3.77   0.4575    562.1314    904.2994  60.07     184.1664     1.031     0.851      3.129     77.58652  22.3870        350
 4.21   0.6580    561.8478    839.1899 -61.35     128.1845     1.314     0.783      2.761     77.66557  22.7804        351
 0.00  99.0000    560.0472   1502.5043  89.86    -106.9361     0.783     0.500      0.000     77.55135  99.0000        352
 6.33   2.2899    563.3165   1168.9200 -73.02     36.79645     0.999     0.744      3.160     77.58652  24.1355        353
 4.40   0.1763    575.2334   1000.2487 -16.34     478.3565     1.684     1.580      5.685     77.64801  21.3506        354
 6.75   0.3405    566.4789   1114.5490  65.40     247.4829     0.909     0.900      5.451     77.58652  22.0661        355
 6.85   0.4805    564.9891   1249.5447 -27.72     175.5512     1.041     0.670      3.854     77.67435  22.4390        356
 5.70   2.4937    565.9993    630.5061  -2.49     33.79632     0.992     0.772      3.460     77.60409  24.2278        357
 4.81   1.6909    569.1726    112.1811 -50.32     49.86382     0.911     0.851      4.103     77.63923  23.8055        358
 5.94   0.2803    577.0299    737.8967  35.30     300.5861     1.383     1.152      6.647     77.57773  21.8551        359
 9.08   0.7708    569.5020   1108.5065  45.12     109.2827     0.504     0.496      3.026     77.56014  22.9536        360
 5.95   0.3514    578.3694    677.7878  -3.43      240.029     1.213     1.122      5.336     77.65679  22.0993        361
 6.66   1.0131    573.9882    548.0839  -0.44     83.22016     0.915     0.752      4.864     77.63045  23.2494        362
 5.35   0.5633    577.6382    843.3677  21.53     149.6816     1.545     0.887      8.508     77.63923  22.6121        363
 3.50   0.1228    583.4961     74.2241 -16.70     686.5752     1.322     1.236      3.969     77.61288  20.9583        364
 6.00   0.6469    582.9614   1099.5001 -50.62     130.2004     1.056     0.924      2.647     77.56014  22.7635        365
 0.00  99.0000    577.8422    695.0611  44.00    -63.36516     0.836     0.659      4.437     77.63045  99.0000        366
 8.92   1.6423    577.2536    480.9903   0.47     51.36262     0.699     0.435      4.196     77.67435  23.7734        367
 5.47   0.4731    584.4695   1171.3883   9.73     178.2945     1.087     0.994      4.989     77.66557  22.4222        368
 4.68  99.0000    581.7790   1485.1768  42.27    -209.0986     0.801     0.663      3.180     77.63923  99.0000        369
 0.00  99.0000    582.6660   1183.9520   4.29    -134.4685     0.741     0.674      0.000     77.61288  99.0000        370
 5.32   0.7350    583.8199    209.8069 -42.27     114.6688     0.796     0.686      3.843     77.60409  22.9014        371
 5.23   1.0294    587.5363   1137.9189  -0.67     81.84703     1.053     0.922      3.458     77.57773  23.2675        372
 3.50   0.4109    997.1730    231.6671 -35.31     205.2147     1.149     1.100      3.745     77.63923  22.2695        373
 0.00  99.0000   1598.8207    709.2975   3.07    -77.15575     1.146     0.840      6.877     62.13553  99.0000        374
 3.94   0.0976   1596.6750    653.1274 -15.58     777.3741     2.061     1.927      5.795     69.83431  20.8234        375
 5.60   0.3753   1599.2190     17.0316   3.57     175.2514     1.619     0.795      6.193     60.56842  22.4408        376
 3.56   0.1172   1593.4586    372.2879  57.98     715.5873     1.640     1.347      4.720       77.243  20.9133        377
 5.54  99.0000    909.3374   1573.8235 -27.17    -5.702787     1.073     0.876      3.834     77.65679  99.0000        378
 0.00   1.5026    909.6639    758.6678 -45.16     56.07408     0.578     0.333      0.000     77.58652  23.6781        379
 5.11   0.2287    907.8714      3.6326 -33.39     320.8972     1.219     0.890      3.930     67.57138  21.7841        380
 4.75   0.4407    907.2199    657.8135  39.55     191.2752     1.174     1.115      4.826     77.61288  22.3459        381
 7.19   3.3163    907.8801    259.1469  47.10     25.40486     0.836     0.675      4.031     77.57773  24.5377        382
 3.50   0.0003    880.5359    182.0380 -36.97     300434.1     3.768     3.384      7.961     77.63045  14.3556        383
 3.89   0.1477    903.5399   1313.7987  84.60     571.1585     1.698     1.165      4.746     77.68313  21.1581        384
 5.13   0.4820    903.1458    733.5557  14.18     174.9029     0.975     0.847      4.822     77.63045  22.4430        385
 3.50   0.0131    899.4399    301.0770  73.75     6436.029     1.683     1.667      4.573     77.61288  18.5285        386
 5.35   3.5073    902.6298    120.2576 -59.53     24.04567     0.997     0.787      1.662     77.65679  24.5974        387
 4.04   0.0611    895.2032    537.0064   4.93     1378.874     2.345     1.895      7.185     77.60409  20.2012        388
 0.00  99.0000    899.4494    449.5103 -24.97     -53.2861     0.501     0.497      0.000     77.57773  99.0000        389
 5.06   1.8143    898.7358    378.2324 -44.39     46.46732     0.743     0.553      2.791     77.63045  23.8821        390
 4.88   0.2960    896.1893    985.8829 -70.45     284.8707     1.264     1.113      3.859     77.63923  21.9134        391
 4.75   0.0221    877.6211    222.5485  89.23     3811.063     8.409     2.434     15.032     77.64801  19.0974        392
 6.40   0.6876    894.1964   1570.0686 -41.29     122.6717     0.822     0.670      2.962     77.66557  22.8281        393
 3.94   0.1915    892.8959   1424.7267 -18.50     439.9088     1.288     1.213      4.130     77.57773  21.4416        394
 3.50   0.0007    879.3774   1591.1613 -62.85     113838.9     2.135     2.017      4.816     77.64801  15.4093        395
 7.60   0.2657    891.3237   1213.3125 -45.58     316.9993     0.564     0.340      3.111     77.56014  21.7974        396
 4.58   0.1389    887.6108    324.2768  15.54     607.1989     2.254     1.609      5.150     77.67435  21.0917        397
 4.03   0.0945    884.7320   1303.1669  74.24     892.4507     2.172     1.403      6.241     77.64801  20.6735        398
 4.08   0.4051    887.7652    679.4688 -39.55     208.1276     1.357     1.101      3.549     77.63923  22.2542        399
 6.93  99.0000    897.5771    727.8093  19.43    -15.95459     0.734     0.455      3.071     77.63045  99.0000        400
 3.67   0.0886    884.8380   1498.8048 -24.85      952.075     1.336     1.281      4.118     77.63045  20.6033        401
 5.28   0.2931    883.8837    337.3351  18.66     287.4535     1.937     1.260      4.188     77.57773  21.9036        402
 8.05  99.0000    882.3992    443.7480 -17.61    -50.42303     0.735     0.458      2.545     77.68313  99.0000        403
 4.92   0.0672    877.1025   1175.5532 -13.24     1252.812     2.087     1.979      8.635     77.53377  20.3053        404
 3.50   0.3997    878.5626    670.3907 -45.07     210.9886     1.548     1.226      3.911     77.64801  22.2394        405
 3.50   0.1202    876.5951    959.5044 -79.21     701.1869     1.298     1.229      4.158     77.61288  20.9354        406
 3.50   0.0003    858.3438   1222.9988  25.48     292096.6     2.506     2.412      5.134     77.69191  14.3862        407
 4.24   0.4637    875.3625    540.0466 -35.41     181.8665     1.105     1.072      3.801     77.64801  22.4006        408
 3.79   0.0758    866.6870    937.9309  44.80     1111.866     2.483     1.546      6.482     77.56894  20.4349        409
 3.50   0.3577    868.4225    642.1518  64.32     235.7117     1.174     1.094      3.750     77.64801  22.1190        410
 5.74  99.0000    868.9875   1434.7231  86.53    -33.70426     0.718     0.689      2.817     77.68313  99.0000        411
 4.18   3.6771    865.7755    453.1805 -42.47     22.93039     1.103     0.916      3.667     77.63923  24.6490        412
 4.05  10.7605    863.9379   1477.7690  55.58     7.834807     0.983     0.882      1.639     77.63045  25.8149        413
 6.78   0.2063    864.8473   1175.9413  16.55     408.6774     1.140     0.950      6.838     77.62167  21.5215        414
 6.14   0.4203    863.4191    353.5639  42.72     200.6627     1.045     0.954      5.769     77.65679  22.2938        415
 0.00   2.1849    863.0830    772.3165  17.58     38.55611     1.061     0.746      0.000     77.56894  24.0848        416
 5.42   0.4640    861.1080    266.5716  30.30     181.6311     1.458     0.973      5.130     77.60409  22.4020        417
 3.76   0.0810    858.6674   1155.9286 -48.65     1040.009     1.409     1.335      4.427     77.56894  20.5074        418
 6.65   1.2689    861.1178    635.1364 -44.46     66.39645     0.833     0.680      4.527     77.57773  23.4946        419
 4.20   0.6502    859.6251   1553.0254  17.27     129.7003     1.099     0.932      3.845     77.64801  22.7676        420
 4.18   0.1314    857.5358   1338.0935 -71.37     641.3456     1.582     1.377      4.471     77.60409  21.0323        421
 7.36  99.0000    857.3162    573.3596 -45.03    -45.82289     1.099     0.647      4.930     77.62167  99.0000        422
 4.73   0.7498    854.7966    543.6133 -69.35     112.4016     1.437     1.235      3.788     77.60409  22.9231        423
 9.24   1.3047    854.5144   1428.4879  44.74     64.57363     0.503     0.496      3.019     77.57773  23.5249        424
 6.94   0.6322    854.1335   1346.3152 -20.02     133.2716     0.909     0.683      5.452     77.57773  22.7382        425
 4.58   0.6543    849.9979   1302.0090  42.45       128.81     0.798     0.763      3.586     77.60409  22.7751        426
 7.12   2.1780    846.8488   1562.1501  45.17     38.72548     0.834     0.674      4.494     77.66557  24.0800        427
 5.92   0.2165    845.6445    359.7645   5.04     389.6699     1.992     1.388      6.281     77.66557  21.5733        428
 3.50   0.1140    843.8990   1062.4214 -47.16     739.1465     1.301     1.216      3.980     77.57773  20.8782        429
 3.67   0.0633    842.4068   1104.7156  21.78     1332.617     1.862     1.499      5.248     77.62167  20.2382        430
 4.98   0.0376    836.8883   1245.4850 -32.05     2238.866     2.491     2.004      9.172     77.57773  19.6749        431
 6.17  99.0000    840.1484    545.8178 -42.72     -65.5183     0.754     0.569      2.725     77.64801  99.0000        432
 4.78   0.3009    836.7659    990.3766  -5.11     280.2339     1.225     1.117      4.123     77.63923  21.9312        433
 8.14   0.2257    837.4343    898.6921 -58.58     373.3756     0.978     0.551      5.870     77.58652  21.6196        434
 3.52   0.0711    835.5318    297.0812 -64.89     1184.772     1.452     1.419      4.130     77.57773  20.3659        435
 3.95  10.7852    835.7798   1519.0117 -23.38     7.815137     1.097     1.040      3.912     77.61288  25.8177        436
 3.50   0.2282    834.6545    817.6158  -7.21     369.4875     1.254     1.120      3.788     77.65679  21.6310        437
 3.72   0.0281    868.4527   1102.0677 -58.47      2998.15     2.082     1.859      5.915     77.59531  19.3579        438
 5.90  99.0000    830.7017    403.0029  -2.39    -113.4756     0.734     0.666      3.065     77.60409  99.0000        439
 3.50   0.0129    822.0500    652.7532 -52.62     6547.937     1.701     1.691      4.597     77.65679  18.5097        440
 7.20   7.3370    825.9781    597.2470  88.91     11.49319     0.685     0.431      1.871     77.64801  25.3989        441
 5.28   0.6795    823.8243    673.1552 -46.25     124.1186     0.749     0.571      2.196     77.65679  22.8154        442
 5.00   0.8003    821.0287    328.9834 -51.85     105.3572     0.788     0.765      2.716     77.63923  22.9933        443
 3.50   0.6649    818.8474   1397.0322 -31.82     126.8308     1.108     1.032      3.036     77.64801  22.7919        444
 3.85   0.4357    818.0057    777.8375 -67.26     193.4785     1.239     0.766      3.195     77.63045  22.3334        445
 3.88   0.3069    817.8771    701.1688  40.94     274.7162     1.104     1.007      3.748     77.62167  21.9528        446
 0.00  99.0000    818.6559   1574.2931  47.62    -125.6929     0.564     0.339      0.000     77.58652  99.0000        447
 4.00   0.3376    814.7400    876.8964  77.42     249.5433     1.579     1.451      5.013     77.56894  22.0571        448
 3.50   0.6151    816.2355    432.0098 -17.05     137.0712     1.160     0.868      2.669     77.63923  22.7076        449
 0.00  99.0000    808.9398   1543.1682  66.66    -275.4294     1.106     1.010      6.636     77.63923  99.0000        450
 5.37   0.3120    808.6687    842.8378 -68.45     270.1769     0.893     0.680      3.870     77.63045  21.9709        451
 3.50   0.0140    802.1561   1377.2687 -69.34     6032.166     1.723     1.626      4.462     77.61288  18.5988        452
 3.50   0.0048    797.5828    694.0785 -87.88     17405.55     2.521     1.785      5.394     77.64801  17.4483        453
 3.50   0.0308    799.6658     39.3432 -29.18     2739.307     1.733     1.515      4.674     77.60409  19.4559        454
 7.40  99.0000    800.9561   1595.2843 -83.77    -37.59826     0.735     0.666      0.908     73.80302  99.0000        455
 5.69   0.5812    797.9482    177.0328  89.96      145.095     1.061     0.726      6.140     77.65679  22.6459        456
 4.69   0.9547    793.4384    293.9872 -85.78     88.33419     1.408     1.180      2.593     77.65679  23.1847        457
 5.05  99.0000    788.6844    407.2916  46.63    -49.79686     0.932     0.749      2.053     77.56894  99.0000        458
 5.48  99.0000    785.3309   1347.5808  22.57    -53.47934     0.899     0.788      1.527     77.67435  99.0000        459
 3.56   0.0380    773.3043   1425.9481 -89.25     2218.487     3.750     2.204      6.686     77.56894  19.6849        460
 6.56   0.4963    780.4772   1265.1068  -1.37     169.7547     0.771     0.499      3.168     77.57773  22.4754        461
 0.00  99.0000    777.2938    475.3512 -42.18    -145.1005     0.567     0.338      0.000     77.56894  99.0000        462
 3.96   0.2261    766.9832    138.3622 -60.94     372.9257     1.496     1.333      5.137     77.65679  21.6209        463
 3.67   0.0662    765.5649    390.1940  -2.87     1272.987     1.469     1.420      4.413     77.63923  20.2879        464
 5.43   0.3213    766.4203    928.8621  17.25     262.4122     1.177     0.979      4.413     77.64801  22.0025        465
 4.08  99.0000    763.4435    565.8588 -13.47    -6.783012     1.026     0.929      3.189     77.62167  99.0000        466
 6.72  99.0000    762.5083   1570.5126 -45.36      -175.25     0.503     0.496      2.270     77.56014  99.0000        467
 4.22   0.3666    756.6255   1339.8118 -44.25     229.9232     2.002     1.006      4.509     77.62167  22.1460        468
 6.65   0.4658    757.2419    104.2812 -82.72      180.932     0.918     0.632      4.984     77.60409  22.4062        469
 4.66   0.2480    753.7518    194.1373  70.38     339.8916     2.004     1.746      5.225     77.61288  21.7216        470
 4.80   0.4188    751.5210   1078.7631 -58.73     201.2367     1.015     0.781      4.195     77.60409  22.2907        471
 6.62   0.8578    751.7948    431.6564 -65.66     98.36534     0.990     0.893      3.704     77.69191  23.0679        472
 7.99   0.6432    746.7986    443.8998  61.00     131.0077     0.998     0.758      5.987     77.59531  22.7568        473
 7.28   0.3806    746.6627   1108.6885 -46.23     221.3888     0.569     0.337      2.118     77.58652  22.1871        474
 7.69   0.1460    743.7292    839.2839  44.04     577.1116     1.422     1.371      8.534     77.56894  21.1469        475
 3.50   0.0555    741.7888    554.6887 -46.92     1519.888     1.505     1.450      4.288     77.63045  20.0955        476
 6.50   0.6383    745.5015    364.0371  -1.88     131.9456     0.776     0.500      2.918     77.55135  22.7490        477
 3.50   0.0002    723.1733    403.1625 -38.65     397078.8     2.657     2.350      5.169     77.63923  14.0528        478
 4.91   0.6451    738.4103   1271.2405  56.26     130.7047     1.037     0.800      4.265     77.63923  22.7593        479
 3.76   0.1305    737.0958   1156.6532 -47.58     645.6467     1.281     1.247      4.111     77.57773  21.0250        480
 3.87   0.1071    735.1339    648.1766  23.49      787.477     1.280     1.262      4.066     77.64801  20.8094        481
 3.50   0.0012    725.6390    846.8148  -4.11     68213.59     2.062     2.033      4.939     77.65679  15.9653        482
 7.17   0.3260    728.8027    751.6425  70.75      258.676     1.122     0.877      5.493     77.65679  22.0181        483
 3.50   0.0675    726.5377   1176.7671 -12.69     1249.539     1.411     1.372      4.166     77.63045  20.3081        484
 4.66  99.0000    727.9813   1542.4713  -1.07    -128.6071     0.809     0.691     -3.535     77.67435  99.0000        485
 3.83   0.2227    720.4841   1393.5349   9.72     378.2866     1.467     1.242      4.096     77.57773  21.6054        486
 6.38  99.0000    721.2885    260.9367  -8.71    -5.997944     0.739     0.673      4.215     77.59531  99.0000        487
 5.88   0.2480    740.3921    918.1597  19.20     339.9743     0.761     0.444      3.181     77.64801  21.7214        488
 3.50   0.0592    714.8723    806.8587 -16.74     1423.717     1.451     1.408      4.077     77.59531  20.1664        489
 7.29   0.5631    739.9937    370.4539   0.01     149.8614     0.825     0.690      4.951     77.70068  22.6108        490
 3.50   0.0520    708.0434   1162.3575  15.51     1621.679     1.443     1.401      4.100     77.63045  20.0251        491
 5.93   1.6509    709.3591    193.3632  45.70     51.08963     1.026     0.876      2.722     77.66557  23.7792        492
 4.14   0.0534    703.2103   1337.6471 -71.72     1580.374     2.232     1.846      5.993     77.66557  20.0531        493
 5.46  99.0000    706.7255    537.0632  22.78   -0.2201394     1.109     1.008      2.542     77.58652  99.0000        494
 3.50   0.0320    701.9611    950.9947 -43.79      2631.57     1.639     1.516      4.387     77.63923  19.4995        495
 7.39  99.0000    702.3176    632.3156 -45.10     -123.349     0.563     0.341      0.780     77.56894  99.0000        496
 5.80   1.0459    700.5140    649.9135  -0.13     80.54558     0.779     0.500      2.966     77.56894  23.2849        497
 4.32   0.1177    698.0168    581.0302   9.81     716.2581     2.375     1.335      5.129     77.65679  20.9123        498
 6.55   0.4003    696.1909   1199.1677  41.45     210.5885     0.741     0.566      4.445     77.63045  22.2414        499
 5.28  99.0000    695.3126    275.2812 -45.20    -42.58918     0.919     0.741      2.713     77.58652  99.0000        500
 4.12   0.0832    690.8043   1212.2382  38.83     1013.105     1.656     1.406      5.062     77.63045  20.5359        501
 4.41   0.1901    685.6290   1212.3180 -31.36     443.5822     1.336     1.159      4.866     77.63045  21.4326        502
 3.54   0.4102    690.9828    314.4811 -89.34     205.5885     1.363     1.269      3.366     77.65679  22.2675        503
 5.58   0.0433    682.1815    470.6699 -71.25     1946.978     3.997     3.773      8.876     77.66557  19.8266        504
 8.13 104.4518    688.3418    666.6924  46.63    0.8064948     0.569     0.337      3.417     77.56894  28.2835        505
 3.50   0.0444    684.5341    642.6834 -85.70      1896.12     1.677     1.518      4.322     77.56014  19.8553        506
 3.50   1.6681    686.5600    129.1386 -74.02     50.54064     1.213     1.118      3.377     77.63045  23.7909        507
 7.14   0.8190    686.3936   1043.2445  19.21      102.968     0.756     0.445      3.960     77.65679  23.0182        508
 4.64   0.0480    680.1719    541.9000 -72.99     1753.334     2.845     2.013      7.274     77.56894  19.9403        509
 6.08   0.4325    684.0917    399.3588  67.60     194.7457     1.243     1.072      5.466     77.56014  22.3263        510
 7.31  99.0000    683.1840   1564.3816  71.56    -141.9169     0.750     0.447      1.505     77.63045  99.0000        511
 0.00   1.2228    681.9842    388.5002 -87.74     68.93028     0.807     0.499      0.000     77.61288  23.4540        512
 6.79   1.9725    676.4925    199.9110   0.69     42.70255     0.787     0.500      3.342     77.56014  23.9739        513
 6.35   0.8033    674.9564   1162.9944   2.98     104.9796     0.792     0.783      3.522     77.65679  22.9972        514
 5.27   0.4297    671.8871    229.7756 -40.14     196.1987     1.169     1.030      3.982     77.62167  22.3183        515
 6.88   3.8413    672.5187    424.4439 -49.40     21.93731     0.507     0.489      3.044     77.59531  24.6970        516
 5.53   0.2001    668.2863   1219.9636 -52.73     421.3304     1.505     1.346      4.744     77.62167  21.4884        517
 7.54   1.3611    668.8893    526.1393  47.57      61.9115     0.840     0.672      3.612     77.59531  23.5706        518
 4.82   0.2648    665.7657   1178.5731   3.32     318.4423     0.954     0.918      4.441     77.63923  21.7924        519
 4.90   2.2430    665.4871   1068.5939  69.03      37.5825     0.931     0.807      3.843     77.62167  24.1125        520
 0.00  99.0000    661.6160     80.7631  17.24    -116.0584     0.744     0.454      4.352     77.65679  99.0000        521
 3.50   0.0013    647.4363   1462.9254 -64.41     66396.48     2.018     1.955      4.785     77.61288  15.9946        522
 3.93   0.1394    653.7332    869.3082 -77.19     604.3934     1.333     1.243      4.429     77.59531  21.0967        523
 6.76  11.5144   1533.4886    973.8960 -50.72     7.313575     1.369     0.971      1.259     77.54256  25.8897        524
 7.63   0.3771    646.2842   1152.9969   7.20     223.5222     0.748     0.678      3.616     77.62167  22.1767        525
 4.38   0.3436    644.7533    651.3694 -64.65     245.4888     1.230     1.185      4.943     77.66557  22.0749        526
 3.50   0.0081    638.8298    535.1763  50.02     10377.48     1.838     1.771      4.752     77.62167  18.0098        527
 4.27   0.4150    640.3396    274.9371 -42.66     203.0913     1.232     1.077      4.051     77.60409  22.2808        528
 7.94   0.4205    636.8403    551.5649  84.77     200.5487     1.262     0.484      6.502     77.65679  22.2945        529
 7.52   1.0664    638.2928    390.9521  -9.02     78.99219     0.744     0.677      3.876     77.56894  23.3060        530
 4.96   0.5613    630.2939    853.7196 -14.08     150.0875     0.980     0.851      5.483     77.57773  22.6091        531
 3.50   0.1128    629.7246    804.6202  19.19     747.6088     1.308     1.237      4.027     77.65679  20.8658        532
 5.71   3.5310    628.1733    940.8096  43.14     23.87621     0.793     0.684      2.924     77.63045  24.6051        533
 7.15   3.7911    625.9575    131.7406 -87.62     22.23537     0.677     0.438      2.097     77.62167  24.6824        534
 3.50   0.0918    622.6840   1580.3485  20.28     917.9258     1.414     1.383      3.938     77.57773  20.6430        535
 8.00   0.7841    625.4883   1286.4780  45.77     107.4205     0.506     0.493      3.036     77.56014  22.9723        536
 8.68   0.9645    624.0000    341.9937   0.00     87.36633     0.858     0.289      3.120     77.59531  23.1966        537
 7.52   0.2464    649.6454   1159.5402 -17.03     342.0236     0.987     0.832      5.920     77.61288  21.7149        538
 4.96   0.1352    617.2538   1150.4204 -12.75     623.4963     2.287     1.393      8.050     77.64801  21.0629        539
 6.66   0.7410    618.5089     93.3388 -32.37       113.73     1.211     0.851      2.721     77.59531  22.9103        540
 3.94   0.4771    615.0223   1233.4691  87.76     176.7585     1.100     0.935      3.628     77.65679  22.4315        541
 5.29  99.0000    615.6664    117.0446  -5.76    -29.10202     0.738     0.663      3.904     77.61288  99.0000        542
 0.00   3.6042    612.8040   1366.5983  39.27     23.38584     1.171     0.988    -73.999     77.61288  24.6276        543
 7.68  99.0000    614.2545    288.0167  -0.90     -11.4244     0.679     0.435      3.018     77.65679  99.0000        544
 4.91   0.5114    610.5709    994.0137  -0.22     164.9093     1.148     0.951      4.053     77.65679  22.5069        545
 8.13   0.8824    608.3402   1334.2922 -68.31     95.48847     1.306     0.899      7.835     77.58652  23.1001        546
 0.00   1.5664    610.2504    961.5877 -71.92     53.84689     0.706     0.464    -13.606     77.66557  23.7221        547
 4.16   0.5531    608.4410    943.8952  30.88     152.2861     1.092     0.996      4.167     77.56014  22.5933        548
 5.55  99.0000    606.6353   1009.8097 -69.38    -114.3994     0.873     0.677      4.022     77.63923  99.0000        549
 3.53   0.0789    604.6259    584.8419 -61.11     1069.012     1.443     1.381      4.076     77.67435  20.4775        550
 5.81   0.3651   1503.3109   1310.4329  16.06     230.8247     0.983     0.947      4.065     77.60409  22.1418        551
 3.96   0.1348   1545.0631    861.9321  46.11       624.95     1.840     1.611      4.143     77.59531  21.0604        552
 0.00  99.0000    603.2000    511.9024 -30.59    -24.86976     1.053     0.647      5.613     77.59531  99.0000        553
 6.56   7.2693    601.7997    763.1479  43.14     11.60552     0.823     0.670      4.030     77.68313  25.3883        554
 0.00  99.0000    599.8062   1424.6854  18.29    -169.6328     0.989     0.881     -7.669     77.62167  99.0000        555
 6.79   4.2621    598.3499    666.8875 -73.86     19.76946     1.018     0.751      1.798     77.58652  24.8100        556
 7.22   1.0663    595.8287   1124.1578 -45.06     79.08812     0.754     0.572      2.869     77.65679  23.3047        557
 5.63   0.8952    592.9840    881.1221  89.40     94.19502     1.257     0.890      5.656     77.64801  23.1149        558
 8.67  76.3341    592.3361   1355.7000  46.86     1.103818     0.564     0.340      3.382     77.58652  27.9428        559
 5.13   0.2601   1592.2811   1383.3767 -13.23      324.036     1.487     1.105      5.219     77.62167  21.7735        560
 5.46   0.4684   1537.7726    504.2819 -81.92     179.9953     1.314     0.918      3.919     77.63045  22.4118        561
 6.43   7.2295   1588.4667   1334.4884  43.34     11.65617     0.508     0.491      2.143     77.59531  25.3836        562
 7.02   0.1868   1551.2142    131.4193  70.62     451.1637     0.739     0.454      3.533     77.62167  21.4142        563
 6.34   0.7597    914.5125    124.0380 -87.80     110.9526     0.795     0.699      4.031     77.61288  22.9372        564
 3.56   0.0666   1583.8901   1107.3706  31.05     1265.104     1.439     1.413      4.287     77.60409  20.2947        565
 3.99   0.1348    911.3047    999.6408  25.14      624.841     1.228     1.183      4.539     77.56894  21.0606        566
 4.90   0.3236   1590.2817    565.3278  11.70     260.3064     1.032     0.899      4.460     77.56894  22.0113        567
 3.50   0.0889    911.7652    836.9797  46.82      948.254     1.343     1.296      4.092     77.64801  20.6077        568
 3.50   0.0356   1541.5651    652.9879 -80.24     2371.085     1.572     1.520      4.567     77.64801  19.6126        569
 5.36   0.6606   1553.0010   1370.2423 -89.95      127.674     0.684     0.428      2.465     77.65679  22.7847        570
 4.89   0.6906   1570.4656   1337.0802  49.64     121.9961     0.857     0.675      3.115     77.57773  22.8341        571
 5.76   0.2252    913.6678   1117.9517   2.16     374.1975     1.082     1.049      5.784     77.61288  21.6172        572
 5.56   0.3111   1561.7994    384.6131 -75.58     271.0339     1.476     0.890      6.797     77.63045  21.9674        573
 5.30  99.0000   1584.9180   1068.0917 -36.80    -13.02182     1.155     1.083      2.764     77.60409  99.0000        574
 5.98   0.3912    916.5121   1111.4973 -71.08     215.2499     0.937     0.420      2.908     77.54256  22.2176        575
 6.59  99.0000   1585.3274    639.9982   1.63    -59.29843     0.742     0.664      1.343     77.66557  99.0000        576
 3.50   0.0225   1540.7145    133.3124 -50.71     3736.469     1.564     1.554      4.528     77.57773  19.1188        577
 3.72   0.2896   1580.4880   1412.9047  69.04     290.8291     1.381     1.137      3.530     77.54256  21.8909        578
 0.00  99.0000   1556.4828    736.5074 -43.82    -185.6143     0.503     0.497      0.000     77.59531  99.0000        579
 3.87   0.4109   1574.3569   1489.9440   4.25     205.1379     1.022     0.938      3.747     77.62167  22.2699        580
 3.99   0.1471   1514.5411   1545.7484  75.59     573.0129     1.713     1.256      5.166     77.60409  21.1546        581
 3.50   0.0014   1562.5902    302.4592 -49.50     59618.53     1.981     1.944      4.996     77.68313  16.1115        582
 3.55   0.0354   1565.5569     20.1926 -73.30     2384.758     1.533     1.499      4.614     77.64801  19.6064        583
 3.50   0.0472   1569.3970     90.9337 -30.49     1785.418     1.511     1.425      4.305     77.67435  19.9206        584
 3.50   0.0049   1551.5663    680.5849 -23.92     17056.16     4.963     4.156     11.268     77.63923  17.4703        585
 3.67   0.0663   1564.7480    782.9547 -73.93     1270.896     2.173     1.589      5.667     77.63923  20.2897        586
 3.96   0.2157   1561.7164   1564.7347  83.74     390.5943     1.068     0.926      3.880     77.56894  21.5707        587
 3.50   0.0939   1560.2748    859.8225  73.43      897.907     1.395     1.346      4.311     77.64801  20.6669        588
 3.50   0.5883   1551.0110   1512.0599  29.59     143.3789     0.781     0.773      2.405     77.67435  22.6588        589
 3.50   0.0014   1557.0215    485.9543 -57.57     59227.45     1.991     1.950      4.907     77.64801  16.1187        590
 3.93   0.3231   1537.6398    261.7019  47.27      260.738     0.972     0.868      3.285     77.56894  22.0095        591
 4.31   1.5968   1550.4930    350.8476  52.56     52.75647     0.879     0.671      3.204     77.56894  23.7443        592
 6.54   0.6373   1553.0337   1231.4982  -0.59     132.1582     0.811     0.695      4.654     77.55135  22.7473        593
 3.68   0.1662   1535.2637   1427.3330 -46.27     506.9008     2.123     1.077      4.257     77.58652  21.2877        594
 6.78   0.4594   1540.4457    328.4951  25.93     183.3493     0.501     0.496      2.952     77.56014  22.3918        595
 6.09   0.5034   1450.3645   1223.7706 -72.33     167.4673     1.128     0.669      3.879     77.63045  22.4902        596
 4.16   0.1966   1549.9670   1220.5962 -11.51     428.9738     1.264     1.125      4.183     77.64801  21.4689        597
 4.01   0.2299   1522.6630    377.0125  59.76     366.8232     1.735     0.951      4.984     77.65679  21.6389        598
 4.91  99.0000   1534.7495    918.2697 -19.33    -32.87492     0.935     0.832      2.831     77.59531  99.0000        599
 4.61   0.1759   1518.0699     83.4022   9.88     479.5465     1.318     1.191      4.762     77.66557  21.3479        600
 4.23   0.1143   1531.5778    414.1128  13.39     737.7769     1.677     1.487      5.582     77.63045  20.8802        601
 5.56   1.6021   1527.3539    731.6343  62.03     52.64014     1.327     1.082      5.194     77.65679  23.7467        602
 5.32   0.2684   1521.5106     12.5315  -7.76     313.8984     1.017     0.992      4.793     77.57773  21.8080        603
 0.00  99.0000   1493.2001    870.4006  70.78    -112.0455     0.764     0.445   -148.109     77.64801  99.0000        604
 3.99   0.1488   1513.5579    481.9728 -80.06     566.9517     1.223     1.123      4.333     77.67435  21.1661        605
 3.50   0.0103   1513.8682    390.9596   2.32     8213.767     1.709     1.671      4.694     77.63045  18.2636        606
 5.32  99.0000   1526.0801    877.5831 -18.35    -73.21006     1.002     0.726      2.179     77.64801  99.0000        607
 4.68   0.1905   1487.1720     76.3101  -5.75     442.5054     1.301     1.181      5.244     77.60409  21.4352        608
 3.50   0.1055   1503.1475    721.7911 -72.44     799.5118     1.380     1.324      3.879     77.67435  20.7929        609
 4.72   0.4713   1519.0063   1099.2742 -87.46     178.9732     1.626     1.220      5.345     77.67435  22.4180        610
 7.91   0.2817   1511.3092      3.6534  43.28      260.554     0.572     0.336      3.058     67.58147  22.0103        611
 6.27   1.3040    918.8821   1343.1436  45.01     64.62378     0.824     0.663      3.686     77.59531  23.5240        612
 5.33  99.0000   1502.9550   1095.0253 -26.75    -60.60199     1.109     0.888      2.270     77.66557  99.0000        613
 3.50   0.0026   1506.1284    267.6196 -39.06     32249.54     1.890     1.876      4.876     77.67435  16.7787        614
 3.50   0.1445   1481.3833    573.6016 -45.53     583.4302     2.213     1.470      5.575     77.61288  21.1350        615
 5.35   0.6639   1501.3430   1412.0780  75.35     126.9654     1.029     0.740      2.679     77.61288  22.7908        616
 5.43   0.2389    915.7727    251.4663  56.44     352.9649     1.873     1.097      6.161     77.63045  21.6807        617
 3.50   1.7820   1497.7295    842.8806  35.10     47.28206     1.131     1.083      3.706     77.58652  23.8633        618
 4.09   0.2386    931.4003   1116.4285 -40.25     353.2897     1.036     0.947      3.840     77.60409  21.6797        619
 0.00  99.0000   1496.3085   1123.3169 -44.54    -69.60112     0.559     0.342      0.000     77.58652  99.0000        620
 6.18   0.2072    921.4901   1197.6259 -53.94       406.73     1.657     1.149      6.912     77.61288  21.5267        621
 4.53   0.2733   1437.7632    645.7658   2.75     308.5729     1.329     0.990      3.727     77.66557  21.8266        622
 6.05  99.0000   1495.3975    928.7016 -57.86     -21.3327     0.909     0.546      3.125     77.60409  99.0000        623
 5.31   0.5439   1466.6744   1126.9293  27.03     154.8871     1.258     0.872      4.568     77.56894  22.5750        624
 4.37   1.2750   1497.0087   1231.3116 -88.43     66.12254     0.733     0.664      1.635     77.63045  23.4991        625
 4.70   0.2218   1474.0746    996.8602 -16.36      379.952     2.590     1.317      5.514     77.60409  21.6007        626
 6.97   9.8353    924.5815    309.2061 -20.12      8.56993     0.742     0.450      2.482     77.61288  25.7176        627
 3.97   0.7712    924.8867     44.8511 -26.12     109.2518     1.060     0.954      3.675     77.58652  22.9539        628
 7.02  99.0000   1482.3333    766.6622  44.81    -162.5947     0.579     0.332      3.476     77.59531  99.0000        629
 5.83   0.2635    924.0271    932.7233  87.69     319.9186     0.729     0.685      4.056     77.62167  21.7874        630
 4.61   0.1822   1475.9445    197.0222   9.99      462.824     1.192     0.971      5.009     77.65679  21.3865        631
 3.65   0.0676    927.3818   1321.0515 -60.20     1247.282     1.433     1.344      4.244     77.64801  20.3101        632
 8.06   0.6967   1470.6782    428.6792 -45.05      120.961     0.567     0.339      3.401     77.59531  22.8434        633
 0.00  13.7472   1496.5206    671.9360   1.87     6.127791     0.770     0.499      0.000     77.56894  26.0817        634
 6.68   1.6380   1477.1406   1022.3224  47.76     51.44725     1.154     0.627      4.149     77.59531  23.7716        635
 3.50   0.0045   1418.4011   1124.8586 -77.49     18553.86     2.022     1.866      4.867     77.68313  17.3789        636
 8.12   0.4823   1451.5862   1163.1904 -20.41     174.7341     0.763     0.442      4.086     77.60409  22.4441        637
 5.83   5.4148    946.8134     42.6076  50.12     15.55899     1.105     0.675      4.516     77.57773  25.0700        638
 5.27   0.1740   1402.8489   1361.6335 -74.33     484.6389     1.115     0.938      4.941     77.64801  21.3365        639
 5.49   0.7187    946.4409    131.7579 -14.69     117.3355     1.108     1.032      2.567     77.64801  22.8764        640
 7.16   0.5402   1474.9755   1569.0132  31.13       156.04     0.800     0.795      4.803     77.62167  22.5669        641
 5.21   0.4983    925.0620    664.6942  35.82     169.1043     0.997     0.819      3.309     77.58652  22.4796        642
 5.40   0.4293    940.5189    724.4358  41.32     196.3801     1.064     1.034      4.259     77.62167  22.3173        643
 3.50   0.2139   1452.4904    389.9434  -2.31     393.8838     1.051     0.921      3.239     77.58652  21.5616        644
 4.82   0.1493    937.3098    514.6938  60.38     563.9808     2.256     1.650      8.470     77.56014  21.1718        645
 3.50   0.0055    928.7859   1176.9735 -63.34     15232.98     1.788     1.770      4.645     77.63045  17.5930        646
 4.99   0.4181   1456.7534    610.2356 -77.31     201.7073     0.967     0.854      4.590     77.65679  22.2882        647
 3.50   0.4843    946.7559    443.5303 -11.64     174.0234     1.245     1.172      3.374     77.61288  22.4485        648
 4.15   0.1738   1437.7389   1269.7083 -34.43      484.909     1.244     1.181      4.504     77.60409  21.3358        649
 3.55   0.0411    938.2715   1065.6440  74.35     2051.105     1.516     1.424      4.328     77.60409  19.7700        650
 0.00   1.6150   1453.9989    921.0148   0.10     52.18443     0.618     0.610     -8.205     77.60409  23.7561        651
 8.04   0.3765   1454.6998   1143.3197  43.89     223.6441     0.557     0.343      3.340     77.53377  22.1761        652
 3.50   0.1222   1431.2603    339.1749  19.84     690.2673     1.931     1.296      5.118     77.64801  20.9525        653
 6.94   0.6179   1453.4241    165.2227  19.37      136.474     0.747     0.453      4.483     77.64801  22.7124        654
 4.67   0.6007    948.6108    265.9981  16.72     140.2939     1.079     0.933      4.129     77.60409  22.6824        655
 3.50   0.0340   1438.7891    617.5158  -9.75     2482.554     1.518     1.457      4.294     77.63045  19.5628        656
 3.50   0.6146   1436.2822    385.9742 -10.44     137.1568     0.726     0.665      2.246     77.62167  22.7070        657
 4.85   0.4035    949.4341    825.3799 -67.70     208.9644     0.963     0.841      3.743     77.63923  22.2498        658
 3.50   0.0006   1433.4287   1089.0946 -40.78     144282.8     2.216     2.101      4.860     77.59531  15.1520        659
 4.96   0.2954    951.0420     59.8504 -55.61     285.4637     1.223     1.146      5.485     77.64801  21.9111        660
 4.48   0.0598    985.7009    452.4940  66.36     1409.106     2.192     1.917      7.101     77.55135  20.1776        661
 4.81   0.3876   1448.4435     86.3038 -75.48     217.3103     0.964     0.937      4.494     77.56014  22.2073        662
 5.81   0.4165    958.6643    891.9353   5.72     202.2912     0.739     0.656      3.081     77.58652  22.2851        663
 6.70   0.5884    952.3122   1502.9946   2.63     143.2527     0.732     0.667      4.392     77.61288  22.6597        664
 6.60   0.5408    962.8923    422.3037  19.58     155.7236     0.935     0.675      5.189     77.55135  22.5691        665
 0.00  99.0000   1445.3502    729.8088 -28.36    -210.5709     1.132     1.047      6.792     77.66557  99.0000        666
 8.96   0.5817   1431.5128   1278.9904 -32.00      144.927     0.800     0.312      4.303     77.63045  22.6471        667
 6.33  99.0000    975.5884     70.2583 -18.53    -15.23492     0.739     0.456      4.432     77.66557  99.0000        668
 5.21   0.4194   1422.9612   1595.5355  27.20      189.474     1.054     0.653      2.768     73.17205  22.3561        669
 3.50   0.0229   1434.2783    223.0297 -38.73     3687.716     1.575     1.529      4.454     77.61288  19.1331        670
 3.68   0.1007    949.7264    652.6766  89.27     836.7422     2.209     1.529      5.682     77.58652  20.7435        671
 6.10   1.1808    954.1638   1027.8688  44.93     71.40804     0.809     0.675      4.403     77.63923  23.4156        672
 6.84   0.4107    983.8214    952.2770 -36.11     205.3072     1.047     0.527      4.494     77.63923  22.2690        673
 5.98   0.2602   1391.8539   1532.9331 -74.35     323.8725     1.314     1.120      5.965     77.60409  21.7741        674
 3.50   0.0323   1407.1237    306.5707 -33.37     2608.217     1.524     1.452      4.357     77.62167  19.5091        675
 3.94   0.2339    964.0480    414.7322 -20.48      360.366     1.256     1.116      3.912     77.61288  21.6581        676
 6.92   2.0761    973.0498    546.6980 -15.16     40.55687     1.003     0.749      4.633     77.53377  24.0298        677
 3.50   0.2796   1435.2114   1345.9427 -76.43     301.6931     1.103     1.098      3.140     77.66557  21.8511        678
 5.44   0.2996    976.1675   1279.1414 -43.84     281.4715     0.813     0.681      3.532     77.64801  21.9264        679
 3.50   0.0029    983.9273    556.8638 -47.92     29507.68     1.891     1.871      4.772     77.57773  16.8752        680
 6.11   0.2263   1410.6138    365.7228 -69.34     372.6866     2.048     0.652      5.949     77.67435  21.6216        681
 5.38   0.2156   1387.7228   1583.7048   3.16     390.6841     0.928     0.853      4.421     77.56014  21.5704        682
 3.62   0.0464   1414.4304   1385.1575  32.96     1816.709     1.424     1.390      4.233     77.66557  19.9018        683
 5.58   0.3426    977.7038   1064.9983  -4.34     246.0743     0.728     0.665      3.981     77.62167  22.0723        684
 5.97   0.4648   1419.1465    428.0791 -41.74     181.2983     0.853     0.657      4.156     77.58652  22.4040        685
 6.80   0.3498   1417.7028    105.0311 -11.65      240.798     0.750     0.672      4.501     77.56894  22.0959        686
 5.35   0.2798    981.3090   1485.5173 -20.65     301.1365     0.951     0.926      4.772     77.59531  21.8531        687
 3.73   0.1264   1410.1467    348.3118  48.27     666.7988     1.824     1.430      4.542     77.58652  20.9900        688
 4.79   0.2054    977.1621    451.1198 -80.29     410.4213     1.395     1.281      3.538     77.61288  21.5169        689
 4.03   0.1211   1405.3202    328.2343 -52.99     695.8692     1.263     1.192      4.427     77.61288  20.9437        690
 3.50   0.0010   1392.3256    112.7033 -57.14     80590.17     2.043     1.990      5.000     77.58652  15.7843        691
 4.16   0.0970    979.9540    796.3262 -60.74     868.9277     1.897     1.679      5.312     77.59531  20.7025        692
 7.69   0.3204   1401.2513     61.0088  -0.45     263.3109     0.683     0.434      4.096     77.67435  21.9988        693
 3.50   0.0110   1387.8695   1427.1104 -78.66     7651.673     1.676     1.662      4.525     77.56894  18.3406        694
 5.43   0.3005   1305.7584    572.4661 -28.68      280.539     1.038     0.790      4.936     77.63045  21.9300        695
 5.53   0.5685   1028.8491    945.8722 -42.73      148.202     0.837     0.654      3.784     77.57773  22.6229        696
 4.18   0.1028   1399.7241   1029.9249  30.94     819.5587     1.676     1.466      5.223     77.58652  20.7660        697
 7.24   0.3520   1388.1443   1100.9866  85.64     239.6169     0.920     0.753      5.081     77.66557  22.1012        698
 5.40   0.2581   1396.0151   1101.5850   5.73     326.6097     0.989     0.763      4.631     77.63045  21.7649        699
 7.62  99.0000   1386.4980    675.9568   0.02    -110.4759     0.789     0.500      4.130     77.56014  99.0000        700
 8.03   0.9627   1402.0109   1343.7205 -84.02     87.59241     0.758     0.680      4.547     77.64801  23.1938        701
 4.65   0.0124   1358.5231   1133.8226  74.98     6777.571     9.508     6.594     29.380     77.63045  18.4723        702
 3.50   0.0322   1389.4053    711.6841  81.49      2621.57     1.589     1.516      4.440     77.62167  19.5036        703
 6.99   0.2010    990.2462      7.4625 -28.26     416.8482     1.469     1.124      6.999     77.15467  21.5001        704
 3.50   0.0003   1365.6389   1158.5627 -61.99     335837.8     2.775     2.613      6.110     77.65679  14.2347        705
 3.50   0.0496   1391.3113   1037.2988 -67.49     1698.656     1.494     1.448      4.176     77.55135  19.9747        706
 6.34   0.5074   1027.8447    179.1574 -46.03     166.1989     1.273     0.867      3.325     77.65679  22.4984        707
 8.07   0.2955   1384.5070   1383.5040  -0.31      285.015     1.068     0.500      5.013     77.55135  21.9128        708
 4.49   0.3042   1378.1963    317.5049 -18.68      277.049     1.323     1.092      4.071     77.60409  21.9436        709
 4.99   0.7797   1027.0353    462.2316  -5.81     108.1337     0.873     0.743      2.969     77.63923  22.9651        710
 4.34   0.7565   1027.3413    350.5627 -39.74      111.455     1.013     0.865      4.036     77.63923  22.9323        711
 4.72   0.1123   1351.2303    150.2305  80.68     750.6892     2.162     1.660      7.895     77.64801  20.8613        712
 3.62   0.2793   1345.8954    192.6021  62.75     301.7819     1.027     0.942      3.399     77.62167  21.8508        713
 3.50   0.0094   1371.5310   1017.4489 -37.34     8937.236     1.902     1.751      4.740     77.60409  18.1720        714
 0.00  99.0000   1026.6232    605.9142  -0.73    -50.56504     1.056     0.926      6.333     77.62167  99.0000        715
 4.61   0.2867   1367.3762    147.6849  44.63     293.9816     1.049     0.928      4.073     77.62167  21.8792        716
 6.03   0.8962   1368.1707   1068.1990  45.38     94.03332     0.745     0.564      3.784     77.59531  23.1168        717
 5.57   0.2237   1369.6470   1213.9382 -16.30     376.8567     1.108     0.943      5.045     77.61288  21.6096        718
 5.44   0.3916   1311.2119    269.9725   1.04     215.3378     0.698     0.409      2.888     77.64801  22.2172        719
 3.94   0.3631   1276.5571    341.7841  80.92     232.2337     0.954     0.928      3.595     77.64801  22.1352        720
 3.50   0.0257   1264.4229    806.2896 -18.43     3285.806     1.560     1.538      4.468     77.62167  19.2584        721
 0.00   1.5502   1307.3242    793.3080 -45.86     54.34599     0.562     0.341      0.000     77.57773  23.7121        722
 3.50   0.0799   1094.6395   1525.1777 -30.46         1055     1.334     1.266      3.939     77.64801  20.4919        723
 6.63   0.3705   1361.7042   1110.3534  56.98     227.3023     1.183     0.776      4.940     77.55135  22.1585        724
 4.76   0.3412   1351.8541    473.8246 -48.19     247.2569     0.815     0.672      3.166     77.67435  22.0671        725
 5.27   0.6385   1369.7343    705.0079   5.00     132.1367     0.719     0.666      2.915     77.68313  22.7474        726
 4.34   0.4446   1359.8328   1242.1254  42.19     189.5865     0.788     0.679      2.836     77.61288  22.3555        727
 7.35   3.2359   1351.7126    965.6663 -42.38     26.03868     0.557     0.342      2.352     77.58652  24.5110        728
 5.66   0.0647   1329.6985   1138.2083 -78.58     1303.219     2.447     1.630     10.942     77.59531  20.2625        729
 8.03   1.6238   1098.2954    861.6458  42.19     51.87288     0.569     0.337      1.857     77.56014  23.7626        730
 8.52   0.3440   1361.5084    525.3306 -89.77     244.9683     0.931     0.470      5.314     77.58652  22.0772        731
 5.18   0.2952   1361.7424    389.2371 -25.90     285.6397     1.318     0.771      4.048     77.63923  21.9105        732
 5.33   0.4922   1302.4600     40.9724  88.35     171.3304     0.798     0.697      4.224     77.65679  22.4654        733
 3.84   0.2851   1345.2644    603.6066 -53.36     295.8867     1.351     1.168      4.204     77.67435  21.8722        734
 4.45   0.1916   1298.1709     52.2045  42.58     440.0286     1.145     1.089      4.664     77.63045  21.4413        735
 6.46   0.4520   1305.3463    842.9009  21.88     186.3227     1.169     1.048      4.830     77.54256  22.3743        736
 3.50   0.0291   1306.4845    668.0395 -50.87     2899.846     1.914     1.586      4.645     77.62167  19.3941        737
 3.50   0.0209   1328.8699    654.2535  11.69     4025.172     1.733     1.657      4.991     77.59531  19.0380        738
 3.51   0.0711   1331.7373    105.7020 -22.36     1185.453     1.408     1.294      4.132     77.59531  20.3653        739
 3.92   0.2455   1387.8553    805.0548  64.31     343.3955     1.193     1.139      4.246     77.62167  21.7105        740
 3.50   0.0028   1318.9818    658.3548 -10.07     30050.53     1.880     1.869      4.827     77.64801  16.8554        741
 8.15   0.3035   1316.2993   1355.6572  42.83     277.5439     0.566     0.339      2.161     77.55135  21.9417        742
 3.50   0.0001   1220.4615    993.4240 -37.25     588070.8     7.178     6.670     11.531     77.65679  13.6264        743
 6.41   0.2653   1314.3456   1132.9926   3.01     318.1162     0.742     0.668      4.222     77.70068  21.7935        744
 3.58   0.0623   1258.4662    430.8267  -5.62     1352.821     2.268     2.110      5.818     77.63923  20.2219        745
 7.00   0.3695   1338.1383   1478.8722  41.74     228.0328     0.831     0.669      4.230     77.59531  22.1550        746
 7.08   0.7221   1301.7408    937.3929  86.72     116.8235     1.329     0.611      3.102     77.68313  22.8812        747
 6.17   0.3208   1324.0872    631.8570   9.21     262.6554     1.745     0.712      7.003     77.58652  22.0015        748
 3.71   0.1059   1303.8031    891.3152 -58.81      795.812     1.341     1.271      4.205     77.62167  20.7980        749
 4.11   0.0297   1306.6106   1034.6216 -39.20     2842.601     2.756     2.091      7.746     77.61288  19.4157        750
 3.50   0.1190   1329.3933    385.2852  -3.69     708.2468     1.296     1.253      3.950     77.62167  20.9245        751
 3.64   0.1058   1318.3696    262.4020 -29.61     796.3915     1.276     1.231      4.038     77.61288  20.7972        752
 0.00   0.7788   1322.6433    957.6936 -47.21     108.1521     0.575     0.334      0.000     77.56014  22.9649        753
 3.50   0.0004   1297.3101    723.3259 -19.97     189243.2     2.659     2.132      5.110     77.57773  14.8574        754
 7.95   0.3547   1100.0000    111.0088   0.00     237.5718     0.859     0.289      3.769     77.59531  22.1105        755
 7.44   1.0375   1311.9938    998.0768 -28.43      81.2698     1.170     1.052      5.225     77.63923  23.2752        756
 3.93   0.1131   1128.1840    545.7701 -30.27     745.9028     1.357     1.284      4.580     77.65679  20.8683        757
 3.50   0.0118   1290.3876    760.6219 -25.70     7166.484     2.257     1.708      5.104     77.62167  18.4117        758
 3.50   0.0190   1277.2014   1329.9415 -87.78     4445.058     1.635     1.592      4.422     77.68313  18.9303        759
 5.36   0.1986   1384.7158   1272.3895  46.12     424.5175     1.497     1.334      6.645     77.62167  21.4803        760
 6.67   0.3830   1123.5750    756.7877 -48.27     220.0891     1.098     0.721      6.585     77.62167  22.1935        761
 6.04   2.7625   1124.4918    274.9145  -0.16     30.48749     0.776     0.500      2.662     77.55135  24.3397        762
 6.67   0.2054   1175.9192     17.0545 -23.45     410.1792     1.282     0.648      5.334     77.57773  21.5176        763
 6.61  99.0000   1299.0090    845.0176  -0.23    -41.78699     0.629     0.597      0.254     77.60409  99.0000        764
 8.09   0.2671   1128.5016    872.2014  88.21     315.5307     0.976     0.730      5.854     77.59531  21.8024        765
 4.20   0.2810   1290.6204    544.2021 -20.71     299.9959     1.143     1.012      3.747     77.62167  21.8572        766
 6.33   0.2808   1292.7864   1089.9070  60.37     300.1239     0.923     0.748      4.643     77.61288  21.8567        767
 7.27  99.0000   1104.0562    625.2693  83.01    -16.88004     0.721     0.682      2.826     77.59531  99.0000        768
 3.50   0.0003   1150.6973    692.2532 -38.99     285413.2     2.887     2.676      6.627     77.56014  14.4113        769
 3.50   0.0988   1291.5846    411.0669  -7.91      853.915     1.363     1.260      4.042     77.66557  20.7215        770
 8.12   0.2306   1107.3711    969.7735 -17.41     365.7024     0.756     0.447      4.538     77.64801  21.6422        771
 4.77   0.2573   1282.3370   1567.6477 -45.17     327.6437     0.972     0.847      4.024     77.61288  21.7615        772
 4.40   0.0464   1202.3214   1074.0956  33.00     1814.027     2.223     1.786      7.293     77.56014  19.9034        773
 8.52   0.9085   1152.4865    574.5125 -44.93     92.71988     0.506     0.494      3.034     77.56894  23.1321        774
 7.49   0.7867   1196.4852   1199.4744  48.16     107.0784     0.502     0.498      2.183     77.56894  22.9757        775
 5.26   1.4182   1129.1439   1143.1812 -48.55     59.45329     0.817     0.666      3.532     77.63923  23.6146        776
 7.01   0.1511   1140.4651    659.7985 -52.32     558.3224     1.893     1.522     11.156     77.68313  21.1828        777
 4.18   0.2184   1272.8336    696.5293 -23.77     386.0002     1.376     1.208      4.216     77.63045  21.5835        778
 4.58   0.2445   1261.2365    853.7141 -51.40     344.8021     1.240     1.125      3.437     77.62167  21.7061        779
 4.33   0.4649   1172.2396    206.5415  -0.52     181.3704     0.948     0.716      3.007     77.63923  22.4036        780
 7.67   0.3158   1144.4635   1337.2426  -9.82     266.9186     1.001     0.475      6.007     77.62167  21.9841        781
 7.53   0.1329   1227.8853    913.5693 -17.44       634.37     1.499     1.332      8.993     77.63045  21.0441        782
 4.39   0.3035   1105.8502   1265.8051 -41.21     277.9492     0.868     0.840      3.485     77.68313  21.9401        783
 5.42   0.2377   1243.1521    612.2711   8.43     354.6003     1.060     0.898      4.129     77.60409  21.6757        784
 4.15   0.1382   1227.8395   1152.2141 -22.11     610.0347     1.188     1.147      4.121     77.65679  21.0866        785
 3.50   0.0077   1271.8032    608.2762 -58.06     10920.51     4.613     2.623      9.169     77.63923  17.9544        786
 6.11   0.4297   1243.4989   1537.5067 -45.16     196.0063     0.504     0.496      3.024     77.56014  22.3193        787
 3.50   0.0056   1213.5747    511.3549 -25.18     14961.69     1.795     1.778      4.765     77.66557  17.6125        788
 3.50   0.1124   1236.6469     46.4764  -7.04     749.6788     1.257     1.207      4.034     77.59531  20.8628        789
 3.54   0.0785   1241.5844    671.1392   6.78     1073.518     1.349     1.311      4.096     77.63045  20.4730        790
 4.91   0.3951   1128.6785    503.2145 -72.86     213.4548     0.970     0.848      4.484     77.65679  22.2267        791
 6.05   0.2658   1237.0966    855.9076 -56.54     316.8688     1.347     1.137      6.688     77.55135  21.7978        792
 3.50   0.0087   1209.7596   1277.4928  80.92      9671.13     6.133     3.697     12.820     77.55135  18.0863        793
 3.89   0.1657   1179.9685    547.8348  27.07     508.9017     1.325     1.278      4.667     77.64801  21.2834        794
 3.52   0.0437   1236.1481   1552.2064 -62.25     1930.048     1.513     1.419      4.427     77.69191  19.8361        795
 5.47   0.0836   1228.9092    597.3938  -8.65     1007.515     1.958     1.837      9.313     77.59531  20.5419        796
 7.87   0.5084   1223.3279    403.3292 -44.94     165.6647     0.573     0.336      1.896     77.56014  22.5019        797
 7.66   0.4299   1174.8308    251.6800 -22.04     196.0964     0.744     0.641      4.461     77.62167  22.3188        798
 3.65   0.2598   1018.5430   1153.2629 -11.43     324.3812     1.024     0.928      3.237     77.61288  21.7724        799
 6.41   0.8685   1252.5984   1087.1168  72.04     97.07365     0.947     0.671      5.397     77.63045  23.0822        800
 4.88   0.2224   1184.2291    312.3769  -4.81     379.1282     0.955     0.906      4.143     77.63923  21.6030        801
 4.38   0.2290   1203.2086   1215.9971 -46.57     367.9841     1.081     1.040      3.982     77.60409  21.6354        802
 3.50   0.2715   1261.4006    214.4516 -30.80     310.7216     1.011     0.985      3.251     77.68313  21.8191        803
 5.10   0.1158   1220.3372   1429.9238 -84.30     727.3347     1.241     1.166      5.214     77.58652  20.8957        804
 4.24   0.0544   1211.8528   1427.9130  72.05     1549.165     2.884     2.287      9.112     77.57773  20.0748        805
 7.06   1.2004   1086.4921   1010.4984 -44.40      70.1681     0.501     0.499      2.017     77.56014  23.4347        806
 4.41   0.0441   1194.0449    122.4260 -77.15     1910.787     2.421     1.984      8.180     77.66557  19.8470        807
 3.89   0.0146   1171.4908    756.1340 -51.46     5761.791     3.866     3.757     10.151     77.60409  18.6486        808
 6.93   0.0960   1194.9761   1051.7767  26.54     878.2669     1.358     1.086      7.308     77.64801  20.6909        809
 3.50   0.0287   1233.3156    303.1268  10.70     2933.697     1.539     1.496      4.514     77.57773  19.3815        810
 5.49   0.3032   1209.7424    827.6857  20.32     277.9529     1.355     0.992      5.667     77.60409  21.9401        811
 5.19   0.3554   1209.4709   1414.3469   8.04     237.0858     1.389     0.977      4.137     77.59531  22.1127        812
 3.55   0.0498   1206.7057    837.2629 -23.02     1690.497     1.473     1.408      4.292     77.59531  19.9800        813
 3.50   0.0714   1200.0442   1440.7319  64.16     1180.865     1.865     1.674      5.480     77.61288  20.3695        814
 3.50   0.0491   1200.7561    337.4187 -18.04     1717.856     1.454     1.439      4.383     77.63923  19.9625        815
 5.57   0.7970   1197.0143    410.9902   3.15     105.7349     0.615     0.613      3.043     77.59531  22.9895        816
 7.37   0.3105   1186.0320   1233.0010  45.53     271.4816     0.915     0.530      5.151     77.62167  21.9656        817
 5.96   0.1662   1181.9125    672.2666 -38.80     507.0216     1.337     1.252      4.627     77.59531  21.2874        818
 3.50   0.1324   1180.7084    174.5835  42.19      636.983     1.217     1.137      3.736     77.63045  21.0397        819
 5.48   0.6695   1222.1429    828.8300  43.66     125.9648     0.817     0.666      3.687     77.65679  22.7994        820
 8.16   0.2061   1187.8943    935.4072 -48.99     409.0184     0.997     0.748      5.983     77.61288  21.5206        821
 4.40   1.0593   1195.9845   1332.0293 -26.05     79.61719     0.791     0.777      2.827     77.65679  23.2975        822
 6.16   0.4475   1208.4907   1453.4929 -44.90     188.2059     0.505     0.495      3.029     77.56014  22.3634        823
 7.42   0.2988   1185.2233    389.9972   0.12     282.1357     0.692     0.416      3.732     77.63045  21.9239        824
 5.91   0.2651   1179.3308   1402.4528 -22.60     317.8624     0.953     0.825      4.430     77.59531  21.7944        825
 7.60   0.1534   1178.1711   1306.1359  44.87     549.5431     0.759     0.567      4.554     77.63045  21.2000        826
 5.29   0.3265   1146.7434    110.7038   6.37     257.9415     1.044     0.920      4.577     77.56014  22.0212        827
 3.69   0.0395   1119.2843    328.1035  59.93     2129.714     2.997     1.855      7.560     77.53377  19.7292        828
 3.50   0.0017   1164.2914   1298.2402 -60.14     50568.41     1.971     1.917      4.792     77.56894  16.2903        829
 3.70   0.0544   1150.1506     97.7526 -18.30     1549.171     1.468     1.382      4.547     77.65679  20.0748        830
 5.51   0.3179   1157.1002    184.2888 -70.77     264.8584     1.252     0.910      4.702     77.53377  21.9925        831
 5.05   0.3015   1155.2443    565.8426 -72.71     279.7046     1.371     1.108      5.496     77.65679  21.9333        832
 8.18   0.6801   1166.4851    637.9879  -0.63     123.9598     0.781     0.500      4.028     77.63045  22.8168        833
 4.59   0.2727   1166.0668   1598.8599  81.41     247.0436     1.399     0.944      4.252     62.02569  22.0681        834
 3.99   0.0737   1152.6777   1351.5503 -11.80     1143.344     1.660     1.613      5.556     77.57773  20.4046        835
 6.36   0.4701   1155.5432    349.9644 -61.96     179.3831     1.000     0.667      3.704     77.64801  22.4155        836
 4.16   0.1218   1160.7136    886.1776  -5.98     692.2849     1.328     1.227      4.537     77.62167  20.9493        837
 7.46   0.2087   1156.7861    969.3268 -20.66     404.3076     0.978     0.847      5.868     77.69191  21.5332        838
 3.50   0.0141   1156.7560    234.6834 -79.93     5995.217     1.671     1.666      4.698     77.60409  18.6055        839
 6.77   0.3843   1154.0000   1123.9731   0.00     219.3522     0.860     0.289      1.393     77.61288  22.1971        840
 3.50   0.0087   1218.0081   1193.4810  65.18     9723.494     1.997     1.875      4.900     77.62167  18.0804        841
 7.48   0.3302   1205.5585    721.4760  38.68      255.273     0.504     0.491      2.955     77.61288  22.0325        842
 6.43   1.1983   1145.6858    793.0436  -9.70     70.33647     0.733     0.663      2.732     77.61288  23.4320        843
 3.57   0.1156   1129.1498    217.8572  -3.65     729.0804     1.557     1.367      4.486     77.62167  20.8931        844
 4.30   0.3490   1171.6689    231.1080 -63.51     241.4169     1.079     0.977      3.669     77.57773  22.0931        845
 4.68   0.2761   1144.4302    768.3583 -59.72     305.5386     1.570     1.123      8.189     77.66557  21.8373        846
 4.35   0.2155   1176.0365   1597.4617 -85.35     338.9061     1.045     0.936      3.913     67.25783  21.7248        847
 3.50   0.0027   1137.4620    146.3127 -54.99     31334.62     1.912     1.893      4.904     77.58652  16.8099        848
 5.35   0.2371   1078.2360    920.6154 -32.32       355.71     0.959     0.940      4.856     77.64801  21.6723        849
 4.59   0.2369   1130.0065    357.5856 -42.74     355.7068     1.180     0.984      3.672     77.58652  21.6723        850
 4.86   0.2282   1132.8885    605.9141 -11.29     369.1452     1.313     1.173      5.404     77.57773  21.6320        851
 3.50   0.0051   1128.9320    181.7648 -53.97     16462.73     1.817     1.770      4.800     77.63923  17.5087        852
 6.05   0.4342   1127.2538    836.0876  74.99     194.0231     1.023     0.750      5.335     77.56894  22.3304        853
 5.53   0.1239   1104.5703    677.0995  39.04     679.9202     2.169     1.755      9.897     77.56014  20.9689        854
 6.54   0.7700   1125.1917    164.8132 -46.07     109.4444     0.742     0.565      4.454     77.59531  22.9520        855
 7.26   0.2045   1120.9564    739.5446   0.88     412.3088     1.058     0.785      6.348     77.62167  21.5119        856
 5.82   0.3270   1119.8595    638.3765  23.52     257.8963     1.121     0.835      4.835     77.66557  22.0214        857
 5.18   0.4428   1115.5903   1168.8553 -34.12     190.4866     1.356     0.982      3.370     77.67435  22.3503        858
 3.50   0.0119   1106.4481    426.3384  -9.29      7107.26     1.716     1.686      4.695     77.60409  18.4207        859
 6.93   0.5698   1116.5751    663.2375 -57.89     147.9732     1.025     0.796      5.697     77.63923  22.6245        860
 6.38   0.7129   1107.9810   1122.0045 -62.43     118.2269     0.791     0.782      3.536     77.61288  22.8682        861
 5.17   0.1066   1113.1106    672.6693 -71.48     790.5867     1.311     1.310      5.943     77.56894  20.8051        862
 8.70   0.3859   1114.6976    505.6875 -44.41     218.2432     0.554     0.344      3.327     77.54256  22.2026        863
 5.24   0.0585   1110.1713    477.9135  27.23     1441.951     3.267     2.221     11.677     77.62167  20.1526        864
 3.50   0.0079   1103.5300    750.2573 -87.83     10620.82     1.778     1.761      4.613     77.59531  17.9846        865
 3.77   0.1632   1093.7592   1134.8015  40.97      516.757     1.145     1.081      3.763     77.64801  21.2668        866
 6.69   1.6869   1083.5940    844.8043  19.73     49.95941     0.765     0.444      3.198     77.60409  23.8035        867
 5.81   0.8445   1076.9998    466.9958 -37.55     99.82734     0.792     0.772      4.751     77.63045  23.0519        868
 3.50   0.0028   1093.8246    776.4846  83.71     30226.83     1.916     1.881      4.914     77.62167  16.8490        869
 3.68   0.1755   1078.3486    328.4358 -38.53      480.476     1.267     1.239      3.696     77.63923  21.3458        870
 4.89   0.1049   1089.8680    466.5598 -61.42     803.8047     2.769     1.373      7.426     77.63045  20.7871        871
 6.19   0.2035   1091.9058    427.6240  27.34      414.194     2.152     1.530      7.683     77.60409  21.5070        872
 5.08   0.3229   1087.3275    395.1394  67.72     260.9591     1.334     1.094      4.627     77.59531  22.0086        873
 4.47   0.0768   1059.0112    725.3658  25.60     1097.648     2.079     1.759      6.234     77.65679  20.4488        874
 3.81   0.1903   1085.5021   1451.3997  65.38     442.9026     1.515     1.213      4.734     77.59531  21.4342        875
 3.50   0.0263   1088.2401    640.8350  86.91     3211.835     1.566     1.534      4.455     77.65679  19.2831        876
 3.50   0.0002   1022.7267     48.6201 -35.71     471845.4     2.597     2.408      5.058     77.66557  13.8655        877
 3.50   0.0025   1079.0282    510.4786 -32.38     33391.57     1.914     1.898      4.778     77.61288  16.7409        878
 4.25   0.1322   1062.2235      5.4637 -29.00     601.0193     1.246     1.180      4.731     73.18137  21.1028        879
 3.50   0.0086   1080.8505   1146.6935  77.88     9823.036     1.745     1.731      4.634     77.56894  18.0694        880
 4.12   0.0452   1071.2167   1217.5026 -70.66     1865.199     2.520     2.104      7.993     77.61288  19.8732        881
 4.82   0.1365   1082.6919     41.1963  -8.16     617.4177     1.616     1.304      6.288     77.59531  21.0736        882
 4.37   0.2520   1065.7548    567.4888 -62.16     334.4023     1.384     1.135      3.990     77.58652  21.7393        883
 5.51   0.2280   1079.3701     51.4391 -43.55     369.7934     1.041     0.920      4.289     77.64801  21.6301        884
 4.63   0.9457   1016.3798    199.5536  42.36     89.17168     1.080     0.949      4.856     77.64801  23.1744        885
 4.14   0.1011   1072.2291      5.1956 -71.72     778.2443     1.268     1.239      3.670     72.45094  20.8222        886
 3.50   0.0050   1008.8694    812.1041  84.86      16885.1     1.824     1.805      4.640     77.59531  17.4812        887
 5.26   0.3442   1073.5564    350.7970  61.84     245.0606     1.464     1.131      5.933     77.67435  22.0768        888
 4.81   0.4755   1062.8992    290.3218 -19.83     177.1504     1.087     0.971      4.279     77.56014  22.4291        889
 4.43   0.0776   1064.2568   1561.6133 -67.53     1086.505     2.826     1.830      8.066     77.65679  20.4599        890
 3.50   0.2316   1064.9015   1595.6791  -0.52     341.1682     1.193     1.117      3.627     72.76086  21.7176        891
 3.50   0.0020   1039.2612    631.3998 -52.15     42600.68     1.943     1.906      4.828     77.68313  16.4765        892
 5.96   2.3712   1055.2920    663.0732   5.50     35.53835     0.739     0.675      4.149     77.59531  24.1733        893
 5.25   1.0862   1059.5073    689.4709   0.23      77.5736     1.035     0.500      3.714     77.58652  23.3257        894
 4.91   0.1649   1066.9222   1472.6885  13.82     510.6867     2.290     1.464      6.834     77.56014  21.2796        895
 6.46   0.2923   1046.9856   1157.0267  37.73     288.4394     0.802     0.775      4.629     77.63045  21.8999        896
 6.80   0.6044   1047.3096    206.9439  -7.42     139.4076     0.748     0.663      4.489     77.58652  22.6893        897
 3.96   0.5963   1051.4053    236.0589  32.58     141.4671     1.280     1.083      4.484     77.67435  22.6734        898
 3.50   0.0101   1037.6960    523.7816  82.78     8375.849     1.756     1.726      4.660     77.61288  18.2424        899
 4.81   0.3694   1041.5990   1094.1293  31.86     228.3001     1.300     0.830      4.347     77.66557  22.1537        900
 5.15   0.7352   1051.6841    399.0921 -82.94     114.5883     1.140     0.849      4.023     77.56894  22.9021        901
 7.71   0.3192   1052.5165   1383.5254  56.93     263.9695     0.500     0.499      3.000     77.57773  21.9961        902
 6.71   0.7487   1032.5081    491.9370  -0.07     112.5646     0.789     0.500      3.656     77.60409  22.9215        903
 5.45   0.3848   1039.6661    465.6006  32.05     219.1942     1.347     1.141      4.660     77.67435  22.1979        904
 4.73   0.1213   1036.8652    120.3497 -37.54      695.131     2.572     1.361      7.572     77.61288  20.9448        905
 6.90   0.3097   1025.0353      5.9489 -44.25     260.8929     0.891     0.532      3.781     74.39198  22.0088        906
 5.31   0.9169   1032.7021    100.3017  39.23     91.85579     0.931     0.759      4.404     77.55135  23.1422        907
 5.23   0.8536   1036.4390    240.4637  -4.44      98.7718     0.907     0.880      3.462     77.63045  23.0634        908
 3.62   0.3883   1013.5132    451.4057  19.72     217.0979     1.293     1.062      4.068     77.62167  22.2084        909
 3.73   0.0521   1029.2534    300.8980  65.90     1615.462     2.833     1.955      6.476     77.55135  20.0293        910
 4.77   0.9976    992.2214    498.2236  13.88     84.52733     0.950     0.845      3.443     77.64801  23.2325        911
 3.50   0.0043   1024.8685   1378.5450 -82.84      19617.3     1.908     1.781      4.705     77.59531  17.3184        912
 6.67   0.3348   1024.2909    126.9758   2.36      251.737     0.735     0.678      4.412     77.61288  22.0476        913
 0.00  99.0000   1031.4546   1166.4862  30.61    -16.27678     0.501     0.497      0.000     77.59531  99.0000        914
 3.50   0.0358   1010.2822    343.0762 -25.98     2354.343     1.542     1.500      4.296     77.59531  19.6203        915
 5.39   0.2677   1028.5204   1033.8624  49.53     314.7368     0.858     0.665      3.557     77.57773  21.8051        916
 5.72   0.3841   1010.0002    266.0419  37.06      219.521     1.151     1.135      4.785     77.64801  22.1963        917
 7.25   2.8679   1008.5160    188.9674   0.83      29.3967     0.782     0.500      2.959     77.63045  24.3793        918
 6.09   0.2175   1025.4962   1265.4888 -34.41     387.2588     0.938     0.561      3.785     77.54256  21.5800        919
 4.83  99.0000    991.4347    344.4879 -26.49    -81.57226     0.908     0.880      2.972     77.62167  99.0000        920
 3.50   0.3903   1003.3541   1236.5841  39.67     216.0192     1.130     0.769      3.326     77.63923  22.2138        921
 4.80   0.1832   1020.2845   1267.2625  45.75      459.902     2.403     0.986      9.043     77.58652  21.3933        922
 3.50   0.0297   1000.7197    541.0186  31.04     2838.101     1.581     1.571      4.463     77.64801  19.4174        923
 3.50   0.0731   1000.5585   1554.0790 -38.51     1153.755     1.361     1.359      4.289     77.61288  20.3947        924
 3.68   0.0805    998.8989   1272.4159 -27.00     1046.296     1.391     1.252      4.438     77.60409  20.5009        925
 5.61   0.4270   1042.1692    808.1451 -29.58     197.5253     0.877     0.838      4.434     77.65679  22.3109        926
 7.01   0.6363    998.5260   1439.5573 -49.47     132.4487     0.506     0.490      3.038     77.60409  22.7449        927
