#   1 KRON_RADIUS            Kron apertures in units of A or B                         
#   2 Y_IMAGE                Object position along y                                    [pixel]
#   3 MAG_BEST               Best of MAG_AUTO and MAG_ISOCOR                            [mag]
#   4 FLUX_BEST              Best of FLUX_AUTO and FLUX_ISOCOR                          [count]
#   5 X_IMAGE                Object position along x                                    [pixel]
#   6 THETA_IMAGE            Position angle (CCW/x)                                     [deg]
#   7 A_IMAGE                Profile RMS along major axis                               [pixel]
#   8 B_IMAGE                Profile RMS along minor axis                               [pixel]
#   9 MAGERR_BEST            RMS error for MAG_BEST                                     [mag]
#  10 NUMBER                 Running object number                                     
#  11 FLUXERR_BEST           RMS error for BEST flux                                    [count]
 4.35     53.0761  16.5055     41476.37     63.6156   3.16     4.592     4.073   0.0089          1      340.727
 3.92     16.5094  18.7191     5399.368    984.8414 -83.95     3.666     1.856   0.0373          2     185.5832
 4.22     17.7176  19.1993      3469.49     91.1998  -3.81     1.747     1.724   0.0415          3     132.6158
 3.50     14.7234  18.0904     9634.979   1445.5381 -51.67     1.979     1.966   0.0142          4     125.7272
 3.94     24.5798  21.0400     636.8116    367.1608  47.33     1.418     0.833   0.1352          5     79.25313
 3.50     59.7903  16.3983     45778.67   1078.2528  41.11     2.422     2.360   0.0036          6     152.1027
 3.50     80.1555  16.4228     44758.29    537.4584  -5.36     2.379     2.363   0.0037          7     150.7199
 4.41     75.1596  20.0754     1548.185    127.4336  -3.96     1.642     1.477   0.0870          8     124.0508
 3.50    121.7140  15.9947     66390.48    788.9751 -30.72     2.477     2.450   0.0025          9     155.8421
 7.55     82.2019  21.5299     405.5502    421.3208 -29.79     0.727     0.638   0.2511         10     93.77357
 4.48     96.3192  19.6901     2207.864     55.8991 -28.59     1.568     1.396   0.0589         11      119.757
 7.23     89.5114  20.6299     929.0826    376.3397 -11.82     1.109     0.883   0.1499         12     128.2008
 5.53     93.6526  26.2972     5.024658   1047.2646  49.95     0.551     0.343   9.6392         13     44.59823
 7.24    117.0107  24.2510     33.08142    452.2246 -89.50     0.672     0.417   2.2280         14     67.86832
 3.50    162.3631  16.6288     37024.56   1468.0619 -38.60     2.333     2.289   0.0043         15     146.4933
 3.74    170.3269  18.2633     8216.423    877.1562 -20.84     2.076     1.959   0.0180         16     136.5057
 6.15    164.6801  21.0974     603.9785   1445.7670   1.43     1.117     0.819   0.1938         17     107.7959
 5.98    166.7937  21.3217      491.249    104.3359 -70.54     0.958     0.664   0.1906         18     86.21245
 8.40    169.3878  22.5747     154.9181   1367.1930  18.98     0.760     0.444   0.6086         19     86.81745
 7.81    178.4733  22.1913     220.5356    574.5372 -47.61     0.503     0.495   0.3633         20     73.78065
 6.04    192.5125  20.5119     1035.755   1350.6089 -46.13     1.345     1.047   0.1357         21     129.4198
 5.82    210.2050  18.8311     4870.336    826.7244  -9.62     3.093     2.058   0.0595         22     266.8058
 4.71    206.2772  19.9912     1673.155    548.8275  67.73     1.490     1.249   0.0757         23     116.6574
 4.28    212.2492  20.0572     1574.427   1305.9180  35.16     1.557     1.396   0.0789         24      114.392
 6.01    229.0811  18.8799     4656.421    562.2142   5.12     2.787     2.140   0.0619         25     265.2317
 3.50    259.5902  15.5306     101804.9    997.2166  -5.34     2.567     2.511   0.0017         26     161.4509
 6.36    209.5165  23.0646     98.66089   1226.4760  47.57     0.501     0.498   0.6371         27      57.8783
 8.03    209.6646  22.0286     256.1989    684.3248  45.47     0.574     0.335   0.2811         28     66.30792
 3.50    223.6874  20.0459     1590.819   1225.4329 -20.57     1.526     1.334   0.0621         29     90.93987
 3.50    265.5750  15.7263     85008.47     67.4363  23.25     2.521     2.500   0.0021         30     161.1264
 6.86    222.0241  20.9982     661.8007    774.9658  42.61     0.796     0.776   0.1628         31     99.19841
 5.37    243.9678  20.1901     1393.028    112.7747  60.17     1.669     1.178   0.1064         32     136.5057
 4.20    255.0830  19.1574      3606.12    612.6425 -10.07     2.406     1.927   0.0493         33     163.7046
 3.50    287.4959  17.3226     19542.04   1486.1455 -21.89     2.200     2.111   0.0076         34     136.1217
 3.93    281.9188  19.0060     4145.612   1521.9924  -7.51     1.742     1.687   0.0321         35     122.3514
 3.64    302.7955  17.6690     14203.69    201.6064 -18.90     2.147     2.093   0.0108         36      141.032
 6.75    292.7825  20.9438     695.8186   1476.2543 -33.47     0.967     0.830   0.1698         37     108.7627
 3.64    321.6673  18.1224     9354.631    697.1133   7.98     2.136     2.026   0.0159         38     137.2704
 5.58    301.8019  21.1315     585.3435    562.6378  12.84     1.362     0.775   0.1936         39     104.3416
 6.42    327.4525  19.8429     1918.043    595.1927 -74.56     1.521     1.295   0.0925         40     163.3845
 8.75    322.3300  21.1078     598.2379    639.1661 -12.92     1.100     0.411   0.1930         41     106.3292
 3.88    367.7903  18.0497     10003.04    760.9296 -31.18     2.118     1.987   0.0157         42     144.3336
 4.50    349.5560  20.7842     805.9567     54.4217  -8.97     1.724     1.072   0.1517         43     112.5469
 4.28    360.8574  20.0440     1593.721   1500.1417  26.84     1.559     1.376   0.0783         44     114.8487
 3.50    394.8527  16.3198     49211.08    231.3119  56.18     2.481     2.350   0.0034         45     153.8137
 6.36    380.3160  20.7184     856.2924      1.4190  87.34     1.266     0.490   0.0962         46      75.8791
 3.50    397.7925  18.3440     7628.106    354.3903  50.55     2.040     1.913   0.0178         47     125.3102
 3.61    396.8803  18.5399     6368.458   1460.9519  11.57     1.997     1.799   0.0213         48     124.8918
 4.30    393.7094  20.0939     1522.058   1088.5785  72.26     1.476     1.300   0.0766         49     107.3092
 5.73    413.0342  19.9220     1783.147      1.8160  86.56     2.186     0.875   0.0708         50     116.2079
 9.08    395.7974  21.3655     471.8578    626.4155 -71.76     0.761     0.454   0.2196         51      95.4334
 3.50    437.5338  17.5851      15344.9    251.9062  -3.41     2.185     2.125   0.0096         52     136.1217
 5.68    420.2739  20.5963     958.2229    159.0850  -7.92     1.694     1.092   0.1586         53     139.9141
 3.50    460.6571  15.1819     140358.6    807.4001  -6.26     2.604     2.515   0.0013         54     163.0638
 5.04    432.4406  20.3815     1167.887   1422.1628  47.40     1.444     1.265   0.1100         55     118.3453
 7.71    427.1245  21.8189     310.7742    433.6820   0.98     1.559     0.329   0.1623         56     46.44785
 4.23    449.6169  18.7623     5188.854     21.3220 -74.14     1.977     1.846   0.0307         57     146.8502
 5.08    439.7754  21.3085     497.2773    305.7711  44.23     1.065     0.762   0.1815         58     83.12138
 6.34    444.2969  20.8237     777.1929    122.5360 -53.60     1.247     0.856   0.1636         59     117.1053
 4.31    457.3157  18.6127     5955.644     34.5039 -50.59     1.926     1.899   0.0271         60     148.6216
 5.20    467.2097  18.3585     7526.354    849.8481  22.62     5.042     1.902   0.0421         61     291.9127
 4.99    463.3731  19.9164     1792.358    468.0524 -11.48     1.585     1.487   0.0836         62      138.031
 4.76    471.5055  19.7629     2064.615    734.9928  75.93     1.661     1.558   0.0740         63     140.6604
 4.64    470.9930  20.1303     1471.879    254.0508  81.26     1.580     1.381   0.0925         64     125.3102
 4.57    477.6005  19.4605     2727.599    922.8333 -26.05     1.755     1.553   0.0537         65     134.9632
 3.50    477.5716  20.8402     765.4873   1276.2678 -70.77     1.351     1.163   0.1134         66     79.91084
 4.56    483.7100  20.5353     1013.596   1070.1748 -64.27     1.311     1.252   0.1129         67     105.3401
 5.73    495.4494  19.6621     2265.377     82.4905  59.85     2.032     1.487   0.0866         68     180.7249
 7.37    494.2784  19.7038     2180.037   1189.0267 -57.81     2.135     1.255   0.1090         69     218.7252
 7.61    481.4957  22.8034     125.4946    682.4514  76.42     0.500     0.497   0.6134         70     70.88615
 4.66    530.8340  17.9339     11129.06    519.0797  23.79     4.232     2.365   0.0194         71     198.3814
 9.16    491.5052  21.4924     419.8098    840.4949  44.99     0.502     0.498   0.2183         72      84.3714
 6.86    502.8146  20.4623     1084.095    762.1321 -76.49     1.438     1.154   0.1601         73     159.8217
 5.62    514.6791  19.2686     3255.178   1460.5062  33.08     2.939     1.497   0.0715         74     214.3745
 4.87    501.1110  21.3796     465.7704    863.8115  56.72     0.984     0.798   0.1817         75     77.92105
 6.18    513.5325  21.1386      581.528   1178.6989 -75.50     1.119     0.911   0.2119         76     113.4732
 8.11    518.3926  21.5342     403.9363    642.0172  -0.38     0.893     0.488   0.2624         77     97.60262
 3.55    539.9919  20.2216     1353.235    999.8556 -16.36     1.458     1.302   0.0706         78     88.01499
 3.84    558.5294  19.7897     2014.193   1041.7600 -40.61     1.726     1.463   0.0594         79      110.197
 3.82    580.0692  18.1416     9191.198    144.9193  80.66     2.006     1.926   0.0161         80     136.5057
 3.72    581.6051  18.1325     9268.283    319.2840  81.21     2.067     1.963   0.0159         81     136.1217
 4.91    570.6909  20.0248     1622.169     45.6481  49.17     1.819     1.369   0.0942         82     140.6604
 0.00    558.4872  99.0000    -40.53015   1014.4709  50.10     0.501     0.498  99.0000         83     67.86832
 6.25    570.2560  20.2184     1357.158   1446.6609 -13.69     1.872     1.116   0.1310         84     163.7046
 5.59    596.4774  18.6195     5918.458    782.5620 -63.92     3.171     2.585   0.0532         85     289.9336
 5.59    583.8234  21.2785     511.2041     75.9971  82.67     0.951     0.748   0.1844         86     86.81745
 4.89   1001.2191  19.4210     2828.684    542.7368 -86.65     1.811     1.613   0.0584         87     152.1027
 5.10   1598.1549  21.2655     517.3593    654.4977 -59.77     1.563     0.709   0.1691         88     80.56319
 7.18   1599.7539  22.2591     207.1947     18.0441   2.33     0.673     0.430   0.2986         89     56.96678
 0.00   1576.4854  99.0000    -48.96753    157.4998  44.55     0.507     0.493  99.0000         90     66.30792
 3.82   1552.1312  17.1381     23161.25    682.1388 -11.09     4.029     3.595   0.0124         91     263.6482
 7.60   1545.4729  21.0576     626.5767    863.4920   0.17     1.075     0.499   0.1756         92      101.287
 3.71   1541.9044  19.7468     2095.372    654.4996 -86.72     1.636     1.370   0.0522         93     100.7689
 4.83   1541.2513  19.2669     3260.252    134.9763  52.87     1.723     1.649   0.0490         94     147.2062
 4.74    938.7365  19.8741     1863.594   1066.8510 -66.13     1.671     1.491   0.0791         95     135.7366
 5.75    928.1341  20.6565     906.5553   1322.7537  13.67     1.378     1.096   0.1541         96     128.6084
 5.49    912.6265  21.0385     637.6719    838.8096 -85.83     1.382     0.831   0.1811         97     106.3292
 8.10    911.2211  21.8664     297.4655   1000.4026  71.65     0.744     0.454   0.3147         98     86.21245
 3.60    899.9008  18.7138     5425.882    302.8005  34.11     1.968     1.814   0.0233         99     116.2289
 5.17    896.1798  20.1923     1390.179    538.6572 -20.99     1.596     1.272   0.1036        100     132.6158
 3.50    880.0001  15.4319     111490.1   1592.3890  67.93     2.579     2.485   0.0015        101     158.8361
 7.77    888.5492  21.2354     531.9294    326.2952  31.43     0.996     0.689   0.2391        102     117.1053
 6.98    885.5248  20.9568     687.4834   1499.8888   3.37     1.025     0.930   0.1939        103     122.7784
 6.56    876.4882  22.1253     234.3507    960.7388  68.84     1.145     0.537   0.4267        104     92.08382
 7.42    875.6602  22.6771     140.9752    543.2203 -14.94     0.752     0.447   0.6003        105     77.92105
 4.02    869.0720  19.5968     2405.811   1102.9993   6.93     1.826     1.786   0.0604        106     133.7947
 9.60    867.4836  21.1583      571.077    937.5118 -43.88     0.501     0.498   0.1696        107     89.19646
 6.99    858.3290  19.8723     1866.775   1340.0992 -26.27     0.848     0.602   0.0481        108     82.67181
 6.85    844.8875  21.2741     513.3037   1063.5880  26.83     1.092     0.575   0.2042        109     96.52411
 5.29    842.8666  20.5833     969.8081   1106.3442 -12.73     1.420     1.251   0.1417        110     126.5571
 5.46    836.3758  20.2644     1300.886    298.4915 -47.33     1.460     1.317   0.1146        111     137.2704
 0.00    832.0208  99.0000    -31.21204    102.6931  61.96     0.895     0.214  99.0000        112     56.04042
 3.50    822.4543  18.5809     6132.662    654.3831  60.36     2.010     1.887   0.0221        113     124.8918
 3.85    802.8201  18.6916     5538.043   1378.5322  80.47     1.905     1.844   0.0257        114     131.0276
 3.50    798.0511  17.4886     16771.32    695.6246  87.04     2.676     2.132   0.0099        115     152.4464
 3.97    800.0858  19.5141     2596.376     41.1827  84.96     1.738     1.594   0.0497        116     118.8797
 3.83    773.9717  19.7319     2124.342   1427.2469  86.26     2.525     1.713   0.0742        117     145.0571
 4.11    742.2826  20.2946     1265.248    556.6755 -32.45     1.593     1.423   0.0966        118     112.5469
 0.00    739.2837  99.0000    -7.103027   1025.6288  40.92     0.570     0.335  99.0000        119     25.06204
 5.75    737.3004  21.3434     481.5586   1157.4828  55.04     1.079     0.817   0.2189        120     97.06487
 6.45    735.8962  21.1271     587.6814    649.7789  27.60     0.990     0.767   0.1891        121     102.3154
 3.50    726.2197  15.9934     66473.96    848.3931   9.61     2.486     2.436   0.0026        122     156.1776
 5.53    726.7856  20.5352     1013.767   1178.2944  53.55     1.179     1.157   0.1269        123     118.4386
 7.35    720.5074  22.0045     261.9338   1395.0264  -3.24     0.780     0.499   0.3524        124     84.98952
 4.62    715.3133  20.3994      1148.81    808.2141  -2.95     1.457     1.192   0.1042        125      110.197
 4.12    708.3894  20.4374     1109.251   1163.8232  76.10     1.459     1.173   0.0956        126     97.60262
 5.31    704.0020  20.0892     1528.672   1339.0176  55.46     1.726     1.530   0.0997        127     140.3778
 3.61    702.1442  19.7542     2081.268    952.2445 -41.71     1.611     1.467   0.0529        128      101.287
 7.63    699.2137  21.5056     414.7412    583.4163  71.29     0.761     0.452   0.2126        129     81.21029
 8.44    687.0834  20.6610     902.7803   1213.1517  66.70     0.965     0.767   0.1576        130     131.0276
 4.78    685.1599  19.7567     2076.411    644.3717 -63.46     1.616     1.437   0.0698        131     133.4029
 3.50    648.0245  16.0004     66045.42   1464.2267 -70.60     2.440     2.433   0.0026        132     155.5059
 5.91    654.3413  21.7281     337.8923    870.4225 -81.46     1.001     0.476   0.2394        133      74.4867
 7.57    644.4534  21.6793     353.3999    653.3862 -25.38     1.539     0.624   0.4135        134     134.5748
 5.86    630.8973  21.4079     453.7539    805.9020 -18.33     1.317     0.649   0.2387        135     99.72467
 4.60    623.1654  20.7060     866.1863   1581.1930 -26.50     1.169     1.109   0.1183        136     94.33009
 3.50   1563.1940  16.1546     57299.55    304.0516  19.62     2.354     2.291   0.0028        137     147.9156
 3.50   1557.4763  16.1572      57162.6    487.5990  72.45     2.428     2.382   0.0029        138     150.3722
 3.50   1560.4519  21.0880     609.2697    861.2052 -47.68     1.353     1.039   0.1328        139      74.4867
 4.31   1584.6047  20.5317     1017.016   1108.8656 -28.62     1.251     1.143   0.1007        140     94.33009
 4.62   1569.9062  20.2708     1293.259     92.4829  -9.49     1.383     1.314   0.0945        141     112.5469
 4.99   1565.8108  20.3653     1185.458    784.5759 -57.96     1.744     1.420   0.1299        142     141.7723
 7.47   1551.3224  22.1854     221.7408   1221.6764  44.93     0.568     0.338   0.2922        143     59.65959
 4.61   1565.9939  19.8936     1830.428     21.9316  76.93     1.520     1.364   0.0713        144     120.1933
 7.35    950.0664  20.9847     670.0782    654.0156   0.14     1.327     0.754   0.2168        145     133.7947
 3.63   1025.4348  17.3664     18768.35   1379.8235  79.28     2.325     2.195   0.0086        146     147.9156
 5.73   1503.9285  21.1773     561.1284    723.1745 -28.62     0.960     0.740   0.1703        147     88.01499
 3.66   1514.2578  18.3787     7387.968    392.6544 -56.78     2.029     1.934   0.0194        148     131.8241
 3.50   1506.6610  16.8312     30726.07    269.2816   8.82     2.292     2.250   0.0051        149     144.6958
 7.13    986.4722  19.9791     1691.771    453.7448 -32.90     1.763     1.184   0.1202        150     187.2678
 6.08    980.7255  20.7995     794.7024    798.3164  25.80     1.282     0.986   0.1695        151     124.0508
 6.03   1071.5354  19.6839     2220.527   1219.0240  65.44     1.823     1.711   0.0951        152     194.3992
 8.26   1064.9005  20.6508     911.3087   1562.6733 -71.30     1.336     0.719   0.1746        153     146.4933
 3.50    984.3661  16.9119     28525.52    558.4333  72.42     2.386     2.297   0.0057        154     148.6216
 3.50   1094.5245  16.9131     28493.79    778.2376  55.02     2.418     2.168   0.0056        155     146.9566
 3.97   1038.1735  18.2290      8480.06    525.4780 -48.22     2.105     2.019   0.0190        156      148.269
 6.73   1110.6647  20.1811     1404.563    479.4353  30.02     1.934     1.115   0.1384        157     178.9788
 3.54   1106.9893  18.5237     6464.428    428.0913  39.79     2.033     1.866   0.0208        158     124.0508
 4.90   1128.2218  21.4494     436.7635    546.8216  61.28     1.009     0.659   0.1799        159     72.34788
 5.42   1119.3601  24.6993     21.89136    397.7130  48.56     0.567     0.337   2.1534        160     43.40873
 3.91   1272.1913  17.7664     12985.46    610.1705 -49.23     3.893     2.566   0.0188        161     224.3951
 4.81   1407.6844  19.6397     2312.776    308.3306 -51.13     1.645     1.548   0.0657        162     139.9141
 6.32   1129.6849  21.1597     570.3013    219.3333  30.42     1.245     0.877   0.2272        163     119.3192
 3.90   1388.4165  18.4312     7039.449   1428.3680  60.07     2.071     1.909   0.0218        164      141.032
 3.99   1391.9753  20.1649     1425.706   1038.7365  55.07     1.559     1.385   0.0799        165      104.842
 3.50   1439.2206  19.7423     2104.138    619.1802   4.29     1.620     1.426   0.0495        166     95.98031
 5.18   1414.9738  20.1417     1456.533   1386.3202  63.84     1.565     1.257   0.0983        167     131.8241
 3.59   1435.6067  15.9758     67559.98   1088.5908  45.91     2.636     1.592   0.0022        168     138.3046
 8.09   1405.5098  21.7071     344.4856    330.4528  50.22     0.505     0.493   0.2326        169     73.78065
 4.34   1434.5785  19.2615     3276.421    224.6958  43.70     1.844     1.673   0.0459        170     138.4096
 7.47   1411.0862  21.0017      659.632    349.8971 -70.30     1.152     0.756   0.2070        171     125.7272
 3.50   1392.8612  15.8102     78691.53    114.4540 -77.22     2.511     2.457   0.0022        172     156.8465
 3.97   1307.2772  19.5103     2605.393    669.2149 -26.56     1.867     1.542   0.0512        173     122.7784
 3.50   1298.0420  14.8643     188050.9    724.8973 -12.40     2.702     2.642   0.0010        174     171.2063
 6.27   1293.0175  20.1395     1459.531    741.9868 -46.93     1.577     1.350   0.1025        175     137.6968
 4.59   1389.9966  19.6098      2377.25    713.2720  29.41     1.727     1.453   0.0599        176     131.0276
 5.06   1399.9536  20.8092     787.6385   1031.1112 -26.12     1.309     0.970   0.1446        177      104.842
 4.00   1372.0980  18.2469      8341.26   1018.8559  59.61     2.008     1.933   0.0185        178     141.7723
 3.50   1319.6676  16.8890     29134.28    659.9767 -65.13     2.297     2.269   0.0055        179     146.6812
 7.00   1330.3043  22.7370     133.4117    387.0521 -27.56     0.908     0.211   0.4328        180     53.16462
 3.50   1331.8578  21.2289     535.1163    107.4655 -45.16     1.456     1.056   0.1568        181      77.2464
 7.21   1318.9254  21.5583     395.0885    264.3366  34.92     1.005     0.850   0.3340        182     121.4927
 6.12   1303.9280  21.0046     657.9165    892.9083 -83.48     1.292     0.766   0.1803        183     109.2429
 4.30   1329.3556  19.2762      3232.47    656.0063  67.05     1.905     1.717   0.0371        184     110.3736
 3.77   1277.7059  19.0905     3835.447   1331.2184  21.58     1.875     1.678   0.0343        185     121.0612
 3.94   1291.0112  18.5098      6547.63    761.9792 -35.98     2.180     1.856   0.0239        186     143.9705
 6.15   1293.2135  20.8404     765.3256    412.4548  86.74     1.495     0.894   0.1808        187     127.3816
 3.74   1265.0043  19.4010     2881.441    807.6888  59.02     1.733     1.652   0.0435        188     115.3035
 7.06   1259.2908  20.3038     1254.538    431.8992  30.23     1.643     1.229   0.1567        189     181.0143
 3.50   1210.1118  17.6884     13952.51   1278.8019  88.29     4.964     3.160   0.0196        190     251.6625
 3.65   1214.2184  17.6604     14316.97    513.1102 -51.82     2.217     2.114   0.0108        191      142.141
 3.90   1233.8926  19.5774     2449.366    304.5956  31.96     1.657     1.489   0.0491        192      110.671
 4.62   1236.6970  20.1601      1432.04   1553.3053  -1.58     1.445     1.336   0.0881        193     116.2079
 6.42   1211.9081  20.1915     1391.259   1429.0969  78.32     1.813     1.390   0.1446        194      185.301
 4.06   1218.5441  18.1448     9163.482   1194.7987  -4.67     2.073     2.006   0.0178        195     150.3722
 7.08   1230.3762  21.3106     496.3041    599.4181 -45.48     1.002     0.527   0.2040        196     93.21372
 3.73   1206.8634  20.2103     1367.407    838.8547  70.52     1.321     1.271   0.0690        197     86.81745
 4.43   1150.4622  20.3606     1190.557     99.7157 -34.18     1.473     1.324   0.1027        198     112.5469
 7.11   1200.6940  20.7230      852.731   1441.8871  44.78     1.428     0.876   0.1829        199     143.6064
 3.50   1138.0439  16.8392     30502.04    148.1240  57.72     2.421     2.385   0.0055        200     153.1316
 5.21   1201.4369  20.1451     1452.004    339.2401  -9.48     1.688     1.359   0.1069        201     142.8756
 6.99   1194.0789  19.9492     1739.156    124.1462 -33.12     1.339     1.252   0.1024        202      164.024
 5.95   1180.7050  21.2563     521.7544    549.8160  69.40     1.110     0.687   0.1986        203      95.4334
 4.00   1157.3177  18.7189      5400.71    236.5814 -70.77     1.936     1.902   0.0281        204     139.5395
 3.50   1129.5725  17.5751     15486.84    183.6764  60.56     2.186     2.166   0.0097        205     138.4096
 7.64   1153.6528  20.7708      816.011   1353.2083   3.41     1.214     0.828   0.1852        206     139.1639
 3.50   1164.8154  16.3164      49368.6   1299.7313  40.42     2.486     2.361   0.0034        207      153.473
 4.43   1160.6956  21.2658     517.2087    887.7303  89.68     1.154     0.833   0.1650        208     78.58991
 3.93   1081.3717  18.1201     9374.667   1148.1642  64.42     2.148     1.996   0.0170        209     146.8502
 5.67   1119.9269  19.6622     2265.197    329.8070  55.72     2.342     1.684   0.0977        210     203.8619
 7.48   1079.2484  21.0648     622.4199    329.6721  33.81     1.151     0.897   0.2408        211      138.031
 0.00   1101.6981  99.0000    -7.796143   1041.6503 -42.75     0.570     0.336  99.0000        212     53.16462
 5.87   1094.8972  20.8771     739.8774   1527.0699 -16.66     1.182     0.964   0.1659        213      113.011
 3.50   1039.8938  16.5048     41501.39    633.0271  41.25     2.469     2.365   0.0040        214     154.1536
 3.50   1079.5071  16.7767     32309.73    512.2222   7.59     2.384     2.315   0.0050        215     148.9734
 7.95   1066.9757  22.5161     163.5187   1471.9790 -42.32     0.852     0.488   0.6265        216     94.33009
 7.03   1029.6747  19.8901     1836.429    302.5821  47.81     1.746     1.559   0.1243        217     210.1827
 3.59   1009.4153  17.5563      15756.9    813.7350  84.07     2.230     2.127   0.0098        218      142.141
 6.31    999.7606  20.6553     907.5444   1274.2617  -7.20     1.566     0.934   0.1656        219     138.4096
 5.24   1010.8171  19.5844     2433.574    344.9009  11.39     1.648     1.521   0.0671        220     150.3722
 5.24   1001.8608  20.6041     951.3713   1555.3735  74.32     1.855     1.153   0.1584        221     138.7873
