#   1 KRON_RADIUS            Kron apertures in units of A or B                         
#   2 Y_IMAGE                Object position along y                                    [pixel]
#   3 MAG_BEST               Best of MAG_AUTO and MAG_ISOCOR                            [mag]
#   4 FLUX_BEST              Best of FLUX_AUTO and FLUX_ISOCOR                          [count]
#   5 X_IMAGE                Object position along x                                    [pixel]
#   6 THETA_IMAGE            Position angle (CCW/x)                                     [deg]
#   7 A_IMAGE                Profile RMS along major axis                               [pixel]
#   8 B_IMAGE                Profile RMS along minor axis                               [pixel]
#   9 MAGERR_BEST            RMS error for MAG_BEST                                     [mag]
#  10 NUMBER                 Running object number                                     
#  11 FLUXERR_BEST           RMS error for BEST flux                                    [count]
 6.25     26.4915  19.1150     3766.132   1647.0709  31.28     2.958     2.144   0.0504          1     174.6721
 3.96     17.9671  19.0818     3883.073   1941.9868 -85.15     1.624     1.497   0.0190          2     67.93871
 4.29     17.9107  21.3837     466.0569    169.1046  52.98     1.568     0.930   0.1328          3     56.97906
 7.50     11.2896  21.6647     359.7748   1582.3114 -63.62     1.081     0.557   0.1935          4     64.08714
 6.49      9.9056  21.4542     436.7494   1811.2614  37.19     0.987     0.828   0.1594          5     64.08714
 7.33      8.1942  22.0876     243.6975    335.6210 -73.24     0.769     0.451   0.2104          6     47.21867
 4.68      2.2750  19.9004     1826.966   1602.9838  -2.39     2.003     1.437   0.0424          7     71.30959
 6.07      5.0980  21.8175     312.5383   1016.7794 -76.94     1.206     0.652   0.1932          8     55.58912
 6.03      5.4326  21.8544        302.1     98.5942  34.34     0.994     0.682   0.1973          9     54.88095
 7.28      2.9920  21.4132     453.5393    698.1990  25.09     1.323     0.547   0.1452         10     60.63735
 6.06      2.0239  20.8810     740.5013    686.3784   8.77     1.675     0.905   0.0992         11     67.65022
 3.50      1.4289  22.4126      180.665    504.6548   8.22     0.914     0.482   0.1456         12     24.22266
 4.30     29.3350  19.4803     2690.257   1482.8679  87.24     1.591     1.408   0.0289         13     71.58334
 9.14     13.9950  21.8204     311.7072   1449.5017 -58.36     0.811     0.308   0.1797         14     51.57399
 3.50     25.2731  21.3008     503.0009    104.4232 -77.21     1.544     1.162   0.1114         15     51.57399
 8.88     19.5315  21.8462     304.3817    378.5100  42.18     0.504     0.495   0.1728         16     48.44533
 4.96     35.4471  20.8154     786.6057    929.8914 -65.09     1.305     1.100   0.0906         17     65.59528
 7.62     26.3016  22.7601      131.182    300.3286 -43.56     0.561     0.341   0.3063         18     37.00073
 3.50     41.5144  21.0118     656.4016    516.4299  87.36     1.323     1.105   0.0795         19     48.03992
 4.53     65.5800  19.5059     2627.625    550.0869 -71.58     2.760     1.700   0.0451         20     109.0468
 3.50     47.5405  19.2000       3482.7     77.3858  82.24     1.576     1.462   0.0184         21     59.00262
 7.17     37.0085  21.4236     449.2355   1448.8123  -6.94     0.922     0.760   0.1621         22     67.06952
 5.05     53.3535  19.9110     1809.295   1613.3472  58.80     1.528     1.447   0.0498         23      82.9722
 5.75     42.1951  22.7094     137.4534   1029.6289 -72.48     0.764     0.445   0.3006         24     38.04321
 4.41     74.8720  18.9580     4352.329    519.8821  84.94     2.812     2.179   0.0304         25     121.7575
 3.50     60.4509  19.7479     2102.618    139.9962 -20.24     1.853     1.703   0.0358         26     69.36315
 7.18     47.8447  21.7405     335.5238   1464.2684 -36.46     1.100     0.521   0.1952         27     60.31395
 4.71     61.5188  19.7243     2148.828   2039.9457  77.14     1.571     1.367   0.0385         28     76.08642
 6.95     49.1961  22.0767     246.1711    877.1786  42.98     0.781     0.567   0.2258         29     51.19336
 8.19     52.0031  22.3142     197.7987    821.5023 -57.59     0.788     0.317   0.2476         30     45.10015
 3.50     50.5002  22.7370     133.9946    513.0062 -32.35     0.790     0.316   0.1756         31     21.66541
 5.78     62.8848  21.3109     498.3535   2029.2487 -70.90     1.135     0.972   0.1474         32     67.65022
 7.11     62.4436  21.7249     340.3623   1616.8848 -62.57     1.110     0.590   0.2035         33     63.78124
 7.78     59.9742  22.3641     188.9202   1151.0000  90.00     0.859     0.289   0.2568         34     44.66439
 7.72     57.3105  22.3263      195.605    390.6775  44.37     0.563     0.341   0.2141         35     38.55388
 8.29     58.3510  21.7317     338.2556    746.8667  13.29     1.078     0.419   0.1988         36     61.91406
 6.73     64.5882  21.9611     273.8093    381.3265 -58.38     0.952     0.546   0.2148         37     54.16352
 6.94     68.6433  21.2134     545.1853    709.2628  24.68     1.244     0.863   0.1586         38      79.6038
 5.60     67.0388  21.7462     333.7565   1658.9302   1.05     1.038     0.728   0.1751         39     53.80122
 3.65     76.4685  20.7975     799.6901    936.5364  86.05     1.307     1.140   0.0674         40     49.64169
 6.69     87.3375  20.3036     1260.307   1332.3121  88.08     2.152     1.169   0.1014         41     117.6733
 7.78     71.8084  22.1253     235.3815    953.6157  72.24     0.765     0.448   0.2344         42     50.80989
 3.50     85.2820  20.7260     854.0909   1025.9706  74.15     1.594     1.492   0.0763         43      59.9888
 5.74     94.5491  20.4414     1110.036   1697.9368  88.25     1.885     1.293   0.0647         44     66.13701
 6.46     80.7115  21.2265     538.6653   1872.5619 -79.38     1.196     0.938   0.1524         45     75.57057
 3.50    101.9015  17.3783     18645.99    453.6153  87.46     1.833     1.688   0.0040         46     68.79691
 3.50    148.7343  15.9376     70283.63   1480.0895 -83.03     2.001     1.900   0.0012         47     75.31133
 7.71     81.4649  21.2844     510.6898   2019.2091 -47.33     1.078     0.731   0.1618         48     76.08642
 3.50    102.6751  17.5680     15657.05   1008.8705  86.86     1.755     1.692   0.0046         49     66.77728
 5.15    101.1270  19.6645     2270.364   1342.6067 -76.73     1.871     1.542   0.0467         50     97.69474
 4.42    103.2826  19.7341     2129.515   1701.8820  83.80     1.653     1.391   0.0377         51     74.00146
 7.00     92.7015  21.0370     641.3398   1175.3208  73.37     1.211     0.872   0.1340         52     79.11089
 5.42     96.2809  20.4238     1128.229   1637.3967  62.02     1.345     1.180   0.0730         53     75.82893
 6.46     93.5461  21.6955     349.7195    795.1349  51.77     1.104     0.729   0.1990         54     64.08714
 6.87     89.4943  22.9315     112.0194    308.5026 -44.87     0.503     0.497   0.3430         55     35.37946
 6.98     96.4171  21.5444     401.9331    408.7786  49.73     1.077     0.724   0.1836         56     67.93871
 7.03     95.7691  22.1181     236.9509    157.5854  71.57     0.722     0.460   0.2047         57     44.66439
 6.43    105.8248  20.9753     678.8473    441.9948  87.54     1.322     1.140   0.1404         58     87.78279
 6.19    104.3940  21.4175     451.7448   1955.8345 -57.92     1.037     0.791   0.1504         59     62.54265
 4.00    122.5991  19.0670     3936.298   1258.1428  89.34     1.709     1.507   0.0197         60     71.30959
 3.50    139.1314  17.4510     17439.12   1577.8752  86.54     1.868     1.766   0.0044         61     70.48199
 4.17    104.6764  23.0923     96.60278   1808.6515 -43.96     0.580     0.332   0.2436         62     21.66541
 7.55    109.1227  21.9225     283.7356   1500.8584 -50.59     0.765     0.568   0.2114         63     55.23617
 3.50    140.2114  17.4144     18036.74    771.8448  84.55     1.866     1.730   0.0042         64     69.64455
 3.50    128.0072  18.4516     6938.548   1863.1251  69.10     1.697     1.600   0.0099         65     63.47386
 7.97    107.6953  22.2140     216.9158   1888.3314  43.62     0.564     0.340   0.1980         66     39.55544
 5.85    120.0791  21.2193     542.2333   1506.5341 -27.89     1.290     1.159   0.1570         67     78.36572
 4.53    130.1362  20.4963     1055.361   1373.3097  48.17     1.390     1.349   0.0711         68     69.08061
 5.31    117.6470  22.9259      112.604   1720.6884 -46.80     0.576     0.333   0.2559         69      26.5346
 6.14    123.5470  21.0340     643.1708   1186.0841  16.69     1.177     0.962   0.1241         70     73.47098
 8.19    118.7465  22.1814     223.5409    244.0071   0.36     0.691     0.435   0.2412         71     49.64169
 4.39    140.8358  19.8541     1906.599    363.8372  47.35     2.385     1.428   0.0509         72     89.32877
 8.54    123.2028  21.1015     604.3568    763.6558  -8.03     0.890     0.771   0.1404         73     78.11575
 7.10    128.7347  21.4899     422.6133    889.9673  63.85     1.318     0.542   0.1716         74     66.77728
 5.06    129.6417  21.2735      515.838    988.0619  63.38     1.221     0.957   0.1290         75     61.27903
 7.94    128.0233  22.0416     254.2548   1742.9845 -45.46     0.848     0.503   0.2463         76     57.66147
 5.21    141.5693  20.3170     1244.842   1797.5446  66.41     1.358     1.235   0.0652         77     74.79013
 3.95    138.6451  21.3799     467.6757     85.3038  78.47     1.081     0.945   0.1017         78     43.77985
 7.62    139.8244  20.7847     809.1431    721.2741 -34.85     1.341     1.005   0.1314         79     97.89473
 3.50    161.3777  17.8035     12603.63    452.7217  45.91     1.868     1.781   0.0061         80     70.48199
 6.02    145.6904  20.8559     757.7925    345.6674  58.25     1.877     1.012   0.1329         81     92.76574
 8.95    135.5075  21.9293     281.9487   1759.5105  45.15     0.505     0.495   0.1866         82     48.44533
 6.02    148.4376  20.3611     1195.238     40.6581 -34.09     1.567     1.389   0.0897         83     98.69064
 6.60    143.5631  21.6605     361.1583   1905.9727 -62.06     1.050     0.656   0.1784         84     59.33317
 5.58    157.4684  19.8395     1932.457    597.8142 -14.45     1.973     1.692   0.0636         85     113.0968
 6.20    146.4538  22.4620     172.6334    557.4737 -41.93     0.505     0.492   0.2226         86     35.37946
 5.84    171.3877  19.9601     1729.355    550.9597 -74.58     2.246     1.712   0.0798         87     127.1017
 6.65    151.4915  22.8038     126.0103   1608.4930 -44.87     0.503     0.497   0.3049         88     35.37946
 3.50    194.5666  15.7771     81479.51    350.0078 -89.90     1.969     1.868   0.0010         89     74.79013
 3.50    171.5577  19.9904     1681.644    259.4762  80.69     1.765     1.629   0.0431         90     66.77728
 4.78    168.3275  20.1512     1450.242   1991.0076 -81.20     1.441     1.293   0.0546         91     72.93664
 3.62    169.7038  19.8015     2001.189   1020.8877 -89.80     1.509     1.390   0.0317         92      58.3359
 6.85    154.4826  22.5521     158.8774    534.4924  44.82     0.519     0.480   0.2456         93     35.92802
 7.84    155.3536  22.5702     156.2598    851.6857  46.68     0.577     0.333   0.2679         94     38.55388
 8.57    156.4276  21.3502     480.6617   1615.2836  -8.48     1.000     0.477   0.1482         95     65.59528
 6.50    158.3238  23.0658      98.9845   1143.6704  44.73     0.572     0.336   0.3566         96     32.49812
 5.32    166.9695  22.0817     245.0276    341.9099 -63.98     1.172     0.573   0.2111         97     47.63106
 5.62    171.2967  21.8091      314.978    693.7338  45.54     0.938     0.759   0.1830         98      53.0692
 4.98    185.1148  19.4565     2749.865    766.3348  -5.96     2.031     1.657   0.0403         99      102.004
 5.89    176.4241  21.5047     416.8896   1020.2969  41.55     1.532     0.686   0.1747        100     67.06952
 6.13    173.5358  21.7563      330.674    232.2538  89.35     1.000     0.714   0.1883        101     57.32129
 6.20    177.0514  21.4869     423.7858   1182.7476  32.81     0.999     0.834   0.1619        102     63.16498
 5.72    189.9656  20.5690     986.9438     38.7123 -80.88     1.456     1.236   0.0941        103     85.52579
 3.52    192.9014  20.7562     830.6431    458.7516  87.86     1.332     1.166   0.0628        104     48.03992
 4.72    188.6646  21.2737     515.7229    969.2155  73.59     1.196     1.173   0.1310        105     62.22915
 5.74    195.4731  20.4538     1097.423     18.0553  79.35     1.654     1.399   0.0951        106     96.07984
 5.98    184.8692  22.1155     237.5168    573.8565 -46.95     0.838     0.658   0.2270        107     49.64169
 5.82    190.7688  21.6051     380.0828   1178.7527  52.42     1.168     0.864   0.1849        108     64.69462
 6.41    185.7716  22.4770     170.2637   1295.6082  70.78     0.750     0.446   0.2554        109     40.04684
 8.05    184.6664  21.6796     354.8571   1879.5098   1.53     0.910     0.471   0.1796        110      58.6702
 4.58    203.2450  19.8175     1972.051   1677.5028 -73.55     1.737     1.529   0.0456        111     82.73615
 4.08    198.9632  20.5026     1049.193    473.9245  34.76     1.386     1.360   0.0641        112     61.91406
 4.27    199.0839  20.2502      1323.83    279.8327  70.20     1.591     1.455   0.0594        113     72.39835
 5.44    205.0399  20.2650     1305.933    900.6860  74.51     1.778     1.333   0.0773        114     92.97633
 6.95    189.5069  22.7666     130.4022   2017.4886 -45.46     0.502     0.497   0.2946        115     35.37946
 6.55    196.4421  21.6251     373.1333    987.6069 -62.13     1.096     0.733   0.1909        116     65.59528
 7.40    198.5416  21.7813     323.1287   1538.9827 -63.58     1.207     0.494   0.2123        117     63.16498
 6.54    210.4055  21.0735     620.1381   1480.1700  61.30     1.635     0.838   0.1494        118      85.2968
 6.85    207.9072  21.2910     507.5897    985.0367 -35.57     1.506     0.721   0.1703        119      79.6038
 4.58    218.4570  19.9601     1729.355   1745.4019  66.54     1.722     1.285   0.0473        120     75.31133
 7.96    203.6808  23.6070     60.13452    410.3252  44.71     0.568     0.338   0.7054        121     39.05787
 3.61    212.1023  21.5125     413.8955    259.5743  28.45     1.337     1.037   0.1217        122     46.38287
 8.43    205.5728  21.4952      420.547   1047.3317   8.95     1.015     0.475   0.1678        123     64.99623
 8.03    211.3858  21.6804     354.6226   2037.5996 -18.63     0.870     0.693   0.2141        124      69.9248
 7.81    210.5213  22.0910     242.9432    646.9507 -33.14     0.769     0.323   0.1937        125     43.33082
 4.44    213.5035  22.2835     203.4697    736.4744  -0.77     1.081     0.500   0.1946        126     36.46832
 4.30    232.9903  19.7714     2057.625   1632.4784  85.80     1.647     1.398   0.0381        127      72.1277
 7.14    219.0452  21.9313     281.4391   1975.5122   0.56     1.149     0.696   0.1554        128     40.28062
 5.92    218.7178  21.8393     306.3413   1970.3451  15.88     1.295     0.671   0.1530        129     43.16738
 7.35    218.6345  22.6161     149.7914   1864.2554  51.30     0.554     0.340   0.2525        130     34.82227
 9.26    218.4885  22.1993     219.8723   1021.5324  48.23     0.503     0.495   0.2547        131     51.57399
 7.87    216.0000  22.4751     170.5482   1443.0039   0.00     0.853     0.289   0.2899        132     45.53173
 8.29    221.5044  21.7189     342.2549   1089.0135   3.24     0.793     0.499   0.1840        133     57.99967
 5.23    235.9377  20.1221     1489.532   1777.6477  69.92     1.408     1.371   0.0584        134     80.09367
 6.15    231.0277  21.1002     605.0815    930.2176 -29.13     1.168     1.065   0.1366        135     76.08642
 4.95    224.6997  22.9279     112.3898    771.6817 -43.97     0.556     0.343   0.2093        136     21.66541
 3.60    236.1112  22.2212     215.4966    156.7184  19.97     0.946     0.678   0.1576        137     31.27132
 7.44    234.5418  22.3942      183.751     40.5127  43.08     0.511     0.487   0.2480        138     41.95488
 6.60    245.7288  20.8309     775.4189   1267.8284  59.91     1.266     1.176   0.1248        139     89.10956
 7.30    240.4376  21.2482     528.0155   1881.8417  50.60     1.054     0.724   0.1461        140      71.0348
 8.41    235.6922  21.8776     295.7209   1664.1674  11.92     1.083     0.413   0.2297        141     62.54265
 3.50    255.0190  20.2638     1307.381     14.0959  89.34     1.824     1.495   0.0537        142     64.69462
 3.50    275.4456  17.3282     19526.53   1749.8987  79.79     1.846     1.743   0.0039        143     69.64455
 8.23    250.0212  22.2153     216.6613    945.0000  90.00     0.857     0.289   0.2325        144     46.38287
 6.19    255.7283  21.7929     319.6985    195.9624  -1.84     1.098     0.874   0.2278        145     67.06952
 4.39    261.4212  20.5146     1037.724     54.8488  12.51     1.338     1.252   0.0655        146     62.54265
 7.92    255.3253  22.5784     155.0748   1048.3064 -46.00     0.562     0.341   0.2735        147     39.05787
 4.31    270.0767  20.4428     1108.611   1847.9153  64.30     1.416     1.399   0.0660        148      67.3605
 3.50    289.1194  17.1060     23961.75   1858.7313 -71.95     1.877     1.782   0.0032        149     71.30959
 5.82    259.2979  22.9459      110.546   1632.6465  42.37     0.570     0.336   0.2748        150     27.96992
 7.02    269.1446  21.0089     658.2091    854.7265 -49.54     1.327     1.011   0.1488        151     90.20029
 3.50    269.7971  22.0945     242.1593    187.0305 -83.08     0.927     0.754   0.1457        152     32.49812
 7.61    264.4965  22.3371     193.6699   1366.5050 -45.05     0.503     0.497   0.2430        153     43.33082
 7.11    264.2191  22.4181     179.7415    961.9812   0.74     0.699     0.414   0.2507        154      41.4861
 8.19    264.3419  22.2316      213.433    124.6783  45.89     0.576     0.334   0.2062        155     40.53227
 3.50    296.0280  17.0498     25233.48    562.3620  81.70     1.855     1.763   0.0030        156     70.48199
 6.85    270.3398  21.3728     470.7351    741.9490  29.71     1.288     0.772   0.1743        157     75.57057
 6.68    265.5971  22.4826     169.3813    470.1956 -19.40     0.746     0.449   0.2749        158     42.87708
 7.64    269.6665  22.6042     151.4351    496.3147  45.90     0.569     0.338   0.2691        159     37.52559
 3.50    295.4152  18.0014     10503.36   1786.3577 -69.97     1.765     1.671   0.0069        160     67.06952
 6.25    281.6823  20.7482     836.7849    489.6555 -52.94     1.500     1.301   0.1255        161     96.68859
 3.50    335.8639  14.9587     173153.8   1873.6226 -79.28     2.105     1.966   0.0005        162     80.09367
 3.50    300.3802  20.4125     1140.055    162.4500 -89.46     1.426     1.269   0.0491        163     51.57399
 8.78    292.9638  21.1701     567.3474    636.4266  27.01     1.225     0.494   0.1456        164     76.08642
 7.13    311.1205  20.3878     1166.188    723.4673  73.20     2.202     0.934   0.1060        165     113.7864
 9.19    293.4990  21.8267     309.9073   1568.5303  50.66     0.502     0.497   0.1807        166     51.57399
 7.59    304.1981  20.8636     752.4158    909.0809  41.89     1.272     0.977   0.1360        167        94.23
 3.55    302.4635  23.0113      104.087   1209.5211 -41.84     0.503     0.495   0.2260        168     21.66541
 7.32    305.9908  22.3771     186.6718   1520.2551  89.51     0.682     0.436   0.2521        169     43.33082
 6.62    313.2552  21.0707     621.7788    882.9208  78.41     1.206     0.943   0.1373        170     78.61489
 6.84    311.7054  20.9836     673.7081   1364.5225  -2.20     1.372     0.911   0.1356        171     84.14253
 6.43    313.3693  21.9786     269.4539    330.8735  66.74     0.912     0.685   0.2269        172     56.28838
 3.50    325.2991  19.5567     2507.367    294.6448 -83.93     1.503     1.428   0.0245        173     56.63478
 7.95    313.1972  21.6076     379.1877   1278.9896 -37.23     0.947     0.471   0.1709        174     59.66188
 5.49    311.4188  22.5971     152.4232   1427.8091 -20.04     0.749     0.449   0.2521        175     35.37946
 5.23    315.0497  22.7574     131.5068   1686.5183  57.55     0.787     0.316   0.2477        176      29.9944
 5.02    328.4905  21.6292     371.7214    996.8655  85.64     1.164     0.718   0.1496        177     51.19336
 3.50    336.3662  19.3261     3100.671    472.5157 -79.41     1.572     1.511   0.0208        178     59.33317
 3.60    343.5479  18.9175     4517.563   1821.7045  70.73     1.598     1.478   0.0148        179     61.59737
 4.98    345.1245  19.7820     2037.492    708.0806  77.95     1.590     1.343   0.0426        180     79.84911
 4.24    336.0067  21.3320     488.7532   1093.2704 -36.28     1.555     0.991   0.1304        181      58.6702
 8.47    328.5014  22.4333       177.25    779.5115 -45.24     0.508     0.492   0.2816        182     45.95927
 5.59    340.4180  20.8128     788.4713    354.6207  75.21     1.417     1.205   0.1120        183     81.30544
 4.38    353.2963  19.9739     1707.484    845.8172  73.05     1.519     1.365   0.0445        184      69.9248
 4.66    344.0681  21.7003     348.1514   1421.7678  33.75     1.131     0.791   0.1536        185     49.24613
 5.19    345.3970  22.0611     249.7238   1492.8530 -12.43     1.091     0.724   0.2226        186     51.19336
 4.07    345.8222  21.8202      311.772    296.7245  27.24     0.957     0.840   0.1412        187     40.53227
 7.06    357.4839  20.3151      1247.05   1959.3707   2.70     1.936     1.447   0.1140        188     130.8921
 5.02    358.1906  20.9173      716.151   1358.7882  75.12     1.568     1.111   0.1114        189     73.47098
 3.59    358.0377  20.1262     1483.941    263.0894  42.16     1.432     1.363   0.0399        190     54.52342
 6.62    350.1186  21.6274     372.3435    955.6389  -9.62     1.031     0.765   0.1913        191     65.59528
 3.76    369.6548  19.9870      1687.04   1197.3593 -48.51     2.738     1.495   0.0537        192      83.4423
 7.60    361.9645  20.7409      842.422   1378.0286  57.08     1.412     0.983   0.1267        193     98.29349
 6.89    360.7633  21.3858     465.1331   1917.0913  -6.57     1.173     0.833   0.1746        194     74.79013
 7.32    377.5959  20.1041     1514.522   2045.9869 -84.90     2.059     1.212   0.0753        195      105.027
 6.70    367.2488  20.7135     864.0057    396.9513  39.82     1.504     0.993   0.1128        196     89.76559
 8.53    359.3139  22.3907     184.3502   1475.6711  44.26     0.567     0.339   0.2444        197      41.4861
 5.04    385.9603  19.9796     1698.438   1510.5970 -50.96     1.622     1.330   0.0520        198     81.30544
 8.00    363.3643  22.3950     183.6072    342.6891  47.18     0.580     0.331   0.2340        199     39.55544
 3.74    384.3403  19.2030     3473.142   1706.3151  77.23     1.591     1.457   0.0198        200     63.16498
 6.51    366.5107  22.5164     164.1903    684.9832  -0.04     0.779     0.500   0.2983        201     45.10015
 4.09    382.2393  20.1181     1495.157     95.2738  71.10     1.390     1.287   0.0443        202     60.95903
 7.17    373.7639  22.0292     257.1803      2.7779  45.34     0.924     0.458   0.1904        203     45.10015
 7.07    372.6665  22.9142     113.8185   1649.3417  44.67     0.581     0.331   0.3214        204     33.68025
 3.50    570.1421  13.9318     445860.9    883.2432 -37.61     4.058     3.728   0.0004        205     150.6227
 5.49    381.3128  21.0449      636.734    892.9085 -23.38     1.214     1.026   0.1164        206     68.22598
 5.41    375.9488  22.0321     256.4869   1587.4590 -30.11     1.033     0.652   0.2102        207     49.64169
 6.16    378.8687  21.9054      288.234   1740.1559  44.28     0.830     0.669   0.1943        208     51.57399
 5.14    382.9280  22.3653     188.7025    391.1731  49.47     0.853     0.655   0.2388        209      41.4861
 3.80    397.9797  20.7559     830.9153   1873.6116  44.04     2.075     1.333   0.0921        210     70.48199
 5.86    387.7897  22.6361     147.0568    369.6103  71.23     0.752     0.447   0.2884        211     39.05787
 3.68    403.9113  20.4077     1145.107    647.0750 -41.12     1.588     1.412   0.0584        212     61.59737
 5.80    402.8524  21.5149     413.0009   1753.4565  13.94     1.047     0.875   0.1603        213     60.95903
 7.70    398.3185  22.6479     145.4623    481.6546  43.82     0.576     0.334   0.2802        214     37.52559
 3.87    412.0852  20.3750     1180.062    416.8240  40.33     1.385     1.298   0.0534        215     57.99967
 5.46    409.3498  21.4885     423.1779    957.3358 -63.94     1.326     0.971   0.1773        216     69.08061
 3.50    428.6713  17.9636     10875.48   1489.7595 -69.48     1.757     1.664   0.0067        217     66.77728
 6.75    413.0681  21.3272     490.9307    852.6235 -50.99     1.139     0.851   0.1613        218     72.93664
 6.89    414.0297  20.8694     748.4321   1596.5056 -48.99     1.399     1.008   0.1312        219     90.41686
 3.50    604.2487  14.0512     399421.4    546.3373  -2.08     4.338     4.202   0.0005        220     165.7085
 4.15    417.1148  21.2047     549.5897    678.8345 -60.58     1.278     1.080   0.1063        221     53.80122
 5.04    416.8552  21.0494     634.0918    422.9319 -88.31     1.162     1.102   0.1077        222     62.85458
 4.90    423.1192  20.7951     801.4178    761.0203 -85.25     1.419     1.216   0.0951        223     70.20395
 3.50    431.6161  19.9436      1755.74    243.3469 -40.79     2.352     2.018   0.0520        224     84.14253
 4.89    429.5782  20.5203     1032.238   1862.2369 -59.67     1.962     1.221   0.0888        225     84.37465
 3.50    434.1948  19.1191     3751.871    732.4590  78.96     1.631     1.475   0.0174        226      59.9888
 7.01    422.5785  22.0031     263.4247    668.9047 -56.11     1.115     0.561   0.2591        227     62.85458
 5.07    426.8137  21.1745     565.0702   1848.7784 -51.26     1.281     1.019   0.1226        228     63.78124
 5.32    432.4393  20.6036     956.0016   1802.0096  82.64     1.490     1.427   0.0984        229     86.66164
 4.57    439.6530  19.8235     1961.126   1141.3611   5.44     2.260     1.693   0.0549        230     99.08619
 5.79    432.4922  21.3201     494.1455    681.4941  42.94     1.093     1.023   0.1480        231      67.3605
 3.50    742.3661  13.4208     713849.2    309.9877 -42.08     7.546     6.786   0.0004        232     277.7344
 3.50    456.1935  17.5585     15794.94   1536.8527 -70.44     1.788     1.710   0.0047        233     68.22598
 3.50    438.0333  21.1345     586.2948    116.7650 -74.35     1.136     1.050   0.0768        234      41.4861
 7.70    436.8066  21.6827     353.8462    916.7700  50.58     0.762     0.555   0.1706        235     55.58912
 3.50    476.3319  16.0809     61593.89    254.6753 -59.57     1.939     1.929   0.0013        236     75.57057
 6.38    443.6289  22.4666     171.9044    406.1838  85.36     0.995     0.380   0.2737        237     43.33082
 6.77    438.6883  22.7807     128.7155    931.3240  44.37     0.564     0.340   0.2742        238     32.49812
 8.44    448.0284  21.2238     540.0001    753.3983 -61.73     1.172     0.548   0.1494        239     74.26528
 3.98    461.0846  20.6451     920.1904   1096.2235 -34.45     1.874     1.413   0.0851        240      72.1277
 6.02    455.6553  20.7093       867.33    203.2383   5.51     1.475     1.144   0.1096        241     87.55971
 3.74    458.1732  21.1024     603.8701   1712.6711  -4.68     1.105     1.095   0.0819        242     45.53173
 6.86    453.0695  21.4981     419.4451    276.8050   0.30     0.892     0.766   0.1627        243     62.85458
 7.34    453.9687  21.7828      322.678    825.0133  45.04     0.930     0.522   0.1941        244     57.66147
 5.98    467.2834  21.1023     603.9576     38.9919  51.48     1.429     1.091   0.1500        245      83.4423
 6.54    467.0872  22.1645     227.0521   1996.8940 -50.98     1.165     0.507   0.2659        246     55.58912
 5.82    467.7798  21.9377     279.7894    863.6669  17.86     1.106     0.664   0.2130        247     54.88095
 5.08    474.5267  21.7422       334.98   1863.8687  44.50     1.111     0.846   0.1779        248     54.88095
 7.75    472.5251  22.2835     203.4769   1408.5334  45.59     0.511     0.487   0.2337        249     43.77985
 4.81    975.1151  20.0927     1530.543    215.0856 -85.16     1.478     1.412   0.0540        250     76.08642
 6.59   1487.9708  21.4363     443.9852   1095.2323  15.63     1.209     0.847   0.1467        251      59.9888
 3.50   1486.9052  17.3451     19224.84   1074.1844  -2.91     1.890     1.506   0.0033        252      58.6702
 4.05   1488.0552  20.9447     698.2726     10.8588   4.55     1.499     0.891   0.0695        253     44.66439
 8.43   1487.6639  22.0098     261.8124    185.0088   0.38     0.815     0.472   0.2139        254     51.57399
 5.84   1484.4955  21.9636     273.1904   1115.0017 -43.91     1.017     0.606   0.2020        255     50.80989
 5.85   1464.7091  20.3497     1207.886     76.9610  39.56     1.636     1.213   0.0819        256     91.06347
 5.09   1462.4574  21.0931     609.0479   1418.7271   3.18     1.183     0.992   0.1093        257     61.27903
 5.89   1461.6494  20.9795     676.2676   1008.6933   8.30     1.353     1.041   0.1246        258     77.61339
 4.33   1274.6906  20.5368     1016.692   1220.2404 -76.60     1.580     1.388   0.0756        259     70.75893
 3.50   1197.2538  18.5151     6544.197   1055.1833  42.03     1.683     1.660   0.0107        260     64.69462
 3.50    901.9692  13.6716     566603.6   1383.9728 -62.37     2.624     2.476   0.0002        261     98.69064
 6.95    908.4827  21.5787     389.4203    251.3208 -12.82     1.093     0.775   0.1958        262     70.20395
 8.16    907.5067  21.5317     406.6428    343.5346  -0.69     1.116     0.500   0.1807        263     67.65022
 4.54    908.7476  18.4533     6927.729   1954.1074 -28.84     3.224     3.105   0.0249        264     158.9617
 3.86    903.4639  20.4145     1137.867    296.7081 -56.38     1.353     1.337   0.0547        265     57.32129
 3.50    907.8177  17.3737     18725.23   1899.2083  55.07     1.822     1.798   0.0041        266     70.48199
 3.50    897.5106  17.5931     15299.85   1444.8932  60.58     1.789     1.754   0.0049        267     69.08061
 4.83    895.1406  20.7666     822.7517   1434.6995  82.33     1.588     1.225   0.0814        268     61.64475
 7.71    900.2681  20.7320     849.4039   1987.6758 -59.57     1.487     1.020   0.1345        269      105.213
 6.83    899.8382  20.6022     957.2682   1770.6115  89.82     1.490     1.218   0.1153        270     101.6198
 3.50    891.8398  15.7762     81552.16    459.9241 -68.99     1.969     1.958   0.0010        271     75.31133
 7.69    894.9969  22.3938      183.818    762.7430 -89.84     0.686     0.437   0.2790        272     47.21867
 5.42    891.4966  19.9549      1737.64    119.8363  40.14     2.166     1.604   0.0699        273     111.8797
 3.50    889.8828  19.7796     2042.092   1096.1307 -55.42     1.503     1.424   0.0303        274     56.97906
 7.79    886.2736  20.7045     871.1837    138.9713  24.30     1.552     0.920   0.1286        275      103.148
 5.21    882.2880  20.0927     1530.416   1403.1115 -49.45     1.509     1.374   0.0590        276     83.20758
 6.07    881.0320  22.0985     241.2803     66.8772  88.54     1.064     0.637   0.2470        277     54.88095
 5.54    874.1018  20.1076     1509.611    132.7366  47.50     2.228     1.734   0.0565        278     78.50681
 4.83    864.5106  18.9060     4565.491    137.3267 -85.42     3.892     2.448   0.0394        279     165.5905
 7.12    866.6789  22.5995     152.0858     23.3354  44.35     0.573     0.336   0.2446        280     34.25602
 3.50    846.9026  17.1597     22803.85   1550.1239  49.38     1.820     1.799   0.0034        281     70.48199
 3.50    852.5526  22.9054     114.7482   1746.5007 -26.17     0.501     0.496   0.2050        282     21.66541
 7.37    851.1932  22.1643     227.0825    475.3852  72.13     0.758     0.449   0.2278        283     47.63106
 5.94    849.6943  21.4363     444.0135   1343.1731  16.39     1.561     0.753   0.1751        284     71.58334
 4.69    844.6645  19.7369     2123.879   1466.9144 -27.39     1.951     1.800   0.0496        285      97.0923
 5.09    847.6559  21.5709     392.2518    554.5686 -49.62     1.071     0.947   0.1578        286     56.97906
 7.99    847.6823  22.3569     190.1752   1666.6459 -43.48     0.579     0.332   0.2287        287     40.04684
 3.61    842.7574  18.6969      5535.62   2040.7567  76.55     1.692     1.598   0.0129        288     65.89277
 3.61    844.1428  20.8509     761.2971    340.2467 -27.96     1.303     1.135   0.0703        289     49.24613
 4.37    839.8503  19.4883     2670.504    249.6620 -89.06     2.453     2.028   0.0441        290      108.327
 4.94    838.7711  21.2995     503.6044   1624.4539 -71.68     1.379     1.028   0.1395        291     64.69462
 4.44    833.4778  18.5681     6232.396   1594.6981 -46.34     4.084     2.129   0.0253        292     145.0666
 6.41    834.6562  20.7141     863.5227    918.4569 -88.78     1.745     1.143   0.1258        293     100.0682
 5.43    834.3412  21.5318     406.6287   1104.5242  83.37     1.525     0.835   0.1814        294     67.93871
 5.80    834.5577  21.3753     469.6672    303.4335  27.28     1.128     0.876   0.1453        295     62.85458
 7.12    834.6625  22.6806     141.1433   1903.6791 -45.75     0.574     0.335   0.2636        296     34.25602
 7.26    833.1707  22.3554     190.4393    756.0016 -38.07     0.950     0.471   0.3047        297     53.43646
 7.48    831.6680  22.5077     165.5132   1989.3281  45.17     0.575     0.335   0.2393        298     36.46832
 5.29    829.9577  21.1126      598.208   1110.3965  65.55     1.164     1.026   0.1158        299     63.78124
 5.14    826.1274  20.7836     809.9518    978.0032  70.07     1.727     1.271   0.1122        300     83.67636
 7.60    826.2902  20.5647      990.927     65.2478  30.17     1.733     1.087   0.1271        301     115.9993
 4.12    821.7861  20.0881     1537.008   1949.4301  -8.42     1.521     1.367   0.0461        302     65.29644
 7.63    823.1013  20.9422      699.886    458.2598  43.25     1.108     0.870   0.1287        303      82.9722
 4.52    821.0672  20.1366     1469.824    819.1380   1.33     1.590     1.432   0.0560        304     75.82893
 3.50    820.4863  22.1610     227.7804    615.1684 -49.31     1.049     0.716   0.1578        305     33.09446
 6.27    812.8759  22.3860     185.1412   1100.3638  75.92     1.057     0.419   0.2770        306     47.21867
 3.50    809.5428  20.7060     870.0083    679.5916 -50.93     1.285     1.251   0.0595        307     47.63106
 3.50    777.5842  14.0212     410598.4     65.9230 -23.87     4.501     4.136   0.0004        308      167.703
 3.50    792.7416  15.7671     82240.04   2024.2783 -81.90     1.987     1.953   0.0010        309     76.59879
 3.50    797.2243  19.0931     3842.876   1566.1333  -1.35     1.611     1.478   0.0169        310     59.66188
 6.01   1437.4613  21.2842     510.7939   1090.2142  32.88     1.869     0.971   0.1904        311     89.54745
 7.67    785.3433  22.3629     189.1162    482.3190 -46.07     0.575     0.334   0.2155        312     37.52559
 6.06    781.1980  19.5735     2468.841    116.1058  14.13     2.445     1.619   0.0586        313     133.1145
 6.74    782.1547  21.5118      414.171    928.4415   9.90     1.264     0.697   0.1826        314     69.64455
 7.39    805.4067  21.0004     663.3284    574.4821  84.20     1.339     0.915   0.1498        315       91.492
 3.50    770.6724  16.5257     40892.08    269.5443 -66.35     1.968     1.927   0.0020        316     76.08642
 3.93    803.4635  20.3886     1165.425    933.4902 -46.28     2.100     1.464   0.0711        317     76.34303
 5.69    769.4420  20.3783     1176.501   1963.0533  74.43     1.877     1.511   0.0975        318     105.5841
 3.50    802.8671  19.2970     3184.902   1355.4380  -6.58     1.492     1.463   0.0193        319     56.63478
 5.89    774.9103  21.2634     520.6548    907.6702 -56.93     1.070     1.033   0.1435        320     68.79691
 4.29    764.4957  20.9670     684.0676   1468.0077 -81.99     1.255     1.059   0.0866        321     54.52342
 5.64    773.8545  21.3561     478.0247   1115.2472  37.48     1.296     0.968   0.1595        322     70.20395
 4.73    763.6874  20.0258     1627.675    194.7734 -78.94     1.658     1.449   0.0544        323     81.54564
 3.50    762.1740  18.7147     5445.585    126.9268  50.74     1.659     1.618   0.0126        324     63.16498
 3.75    797.4926  20.8204     782.9537    151.1684  74.04     1.325     1.256   0.0746        325     53.80122
 3.50    760.0399  18.8060     5006.147   1048.1279 -84.26     1.626     1.510   0.0132        326     60.95903
 6.28    756.6411  20.5777     979.1047    201.5550  71.59     1.710     1.195   0.1106        327     99.67658
 6.56    758.3906  21.8858     293.4789   1441.7676 -16.32     0.926     0.631   0.2031        328     54.88095
 8.19    802.1475  21.3621     475.4132   1400.8402  42.67     0.821     0.688   0.1578        329     69.08061
 5.66    755.1419  20.9421     699.9631   1719.9586 -79.54     1.390     1.128   0.1224        330     78.86328
 3.50    746.0203  16.6509     36436.03   1280.7627 -64.25     1.862     1.831   0.0021        331     71.58334
 4.53    749.1531  20.5169     1035.447   1208.4584 -25.62     1.298     1.254   0.0669        332     63.78124
 5.96    802.0872  21.5892     385.6866   1101.8861  -8.52     1.091     0.732   0.1698        333     60.31395
 6.87    747.2570  21.3035     501.7538   1296.3572  70.67     1.184     0.715   0.1507        334     69.64455
 7.81    745.9947  20.9315     706.8336    386.6262  29.84     1.462     0.827   0.1451        335     94.43733
 3.50    796.5569  21.0816     615.5387   1482.4303  43.33     1.582     1.065   0.0903        336     51.19336
 3.50    798.4666  18.9768     4277.296    475.8239 -76.58     1.708     1.566   0.0163        337     64.08714
 5.11    741.5569  21.1554     575.0934    615.2471  24.77     1.240     1.148   0.1283        338     67.93871
 3.51    737.0692  19.1614     3608.681   1628.6971 -73.66     1.572     1.461   0.0178        339     59.00262
 7.22    739.1093  21.7362     336.8577    806.9134  46.42     0.871     0.659   0.1944        340     60.31395
 3.50    792.7305  17.8791      11756.1   1262.5706  87.06     1.757     1.700   0.0062        341     67.06952
 8.59    737.4819  21.0259     647.9727     67.6533 -51.45     1.148     0.661   0.1383        342     82.49942
 7.78    796.5405  21.5864     386.6851    531.2722  68.74     1.148     0.533   0.1892        343      67.3605
 7.98    791.8904  21.7725     325.7573   1179.8384  85.05     1.340     0.351   0.2022        344     60.63735
 3.50    725.5264  20.2236     1356.604   1098.9652  45.78     1.524     1.434   0.0464        345     57.99967
 3.90    724.3502  20.5860     971.6655    687.4048  58.41     1.410     1.238   0.0633        346     56.63478
 3.68    788.6992  19.8278     1953.309    943.2156 -73.31     1.484     1.388   0.0328        347     59.00262
 3.50    721.4879  20.7090     867.5417   1581.5197  40.74     1.363     1.184   0.0591        348     47.21867
 6.82    720.5375  20.6458     919.5684    535.8018 -41.59     1.409     1.208   0.1170        349     99.08619
 5.60    718.4053  22.7259     135.3766    605.7949 -20.08     0.758     0.443   0.2882        350     35.92802
 5.51    789.2964  21.6138      377.032    650.2047  67.83     0.976     0.831   0.1560        351     54.16352
 4.19    708.0305  22.5315     161.9178    409.4773 -89.53     0.813     0.499   0.2055        352     30.63951
 4.26    705.8728  22.4440     175.5165   1527.1572  45.56     0.833     0.660   0.2120        353     34.25602
 4.47    701.8222  20.3792     1175.552   1781.0238 -40.72     1.731     1.359   0.0703        354     76.08642
 3.50    699.4596  19.7310     2135.527   1748.7657  11.85     1.539     1.454   0.0297        355      58.3359
 5.63    785.3460  20.4194     1132.782    769.0318   3.16     1.564     1.382   0.0877        356       91.492
 6.64    699.4808  21.3990     459.5084    508.0083  -4.81     1.277     1.042   0.1256        357     53.15621
 6.06    696.1176  20.6541     912.5834    511.8879   4.50     1.729     1.405   0.1248        358     104.8406
 6.55    693.7723  21.9718     271.1326    132.4941 -40.17     1.374     0.449   0.2255        359     56.28838
 4.72    691.9260  21.0787     617.1989    682.8486  51.16     1.270     1.216   0.1128        360     64.08714
 3.57    687.8798  18.3196      7835.15    783.8785  83.07     1.775     1.682   0.0095        361     68.79691
 4.85    689.5312  21.2593     522.6127   1797.4894 -14.35     1.421     1.066   0.1369        362     65.89277
 3.78    684.8990  21.4307     446.2878    604.7504  88.05     1.204     0.969   0.1108        363     45.53173
 7.05    684.1769  21.8941     291.2469    575.6541  -9.60     0.883     0.605   0.2137        364     57.32129
 6.32    678.8491  22.2924      201.804    464.8431  51.03     0.756     0.560   0.2450        365     45.53173
 7.53    677.0154  21.0646     625.2405   1634.2771  82.94     1.224     0.839   0.1470        366     84.60612
 4.75    676.4659  21.6872     352.3851   1788.2882  30.64     1.257     0.824   0.1658        367     53.80122
 6.17    675.3099  21.2228     540.4779    502.8428  -6.66     1.273     0.952   0.1518        368     75.57057
 9.08    673.5087  22.0060     262.7214   1266.4821 -47.32     0.501     0.498   0.2100        369     50.80989
 4.71    668.9172  21.5640     394.7332   1332.6421 -14.41     1.018     0.883   0.1377        370     50.03412
 6.45    667.3419  21.5179     411.8455   1317.9816 -34.84     1.336     0.908   0.2073        371     78.61489
 3.54    660.8918  19.5249      2581.98   1414.3634  66.69     1.506     1.424   0.0244        372     57.99967
 4.42    659.6271  18.9287     4471.167     64.9762  11.09     2.553     1.969   0.0269        373     110.8259
 3.67    659.7964  20.4877     1063.723   1094.0941  12.66     1.958     1.332   0.0670        374     65.59528
 3.50    656.6529  19.3435     3051.358   1147.5593  33.15     1.557     1.527   0.0210        375     59.00262
 4.50    650.8243  21.6745     356.5526   1155.1127  83.06     1.286     0.747   0.1500        376     49.24613
 6.20    648.9679  20.6861     886.0702    530.6528  74.07     1.567     1.290   0.1202        377     98.09431
 6.53    649.3076  22.9792     107.2095   1294.3130 -44.70     0.557     0.343   0.3292        378     32.49812
 3.75    643.9822  19.7071     2183.128   1529.5319  18.89     1.536     1.424   0.0311        379     62.54265
 4.43    641.4269  20.8346     772.7736    223.5090 -58.85     2.224     1.094   0.1087        380     77.36098
 4.16    640.5010  19.7556     2087.738     62.0057  -7.22     2.433     1.752   0.0496        381     95.26212
 4.92    638.6810  22.4226     179.0066   1839.0822  11.80     1.073     0.420   0.2212        382     36.46832
 3.50    621.0814  14.3327     308193.9   1496.7908 -60.20     2.106     2.042   0.0003        383     80.09367
 3.50    631.4232  19.2862      3216.89    719.6070  59.50     1.512     1.476   0.0196        384     57.99967
 6.14   1385.9456  21.7518       332.05   1973.2178 -89.03     0.970     0.946   0.2126        385     64.99623
 3.50    617.8443  22.2340      212.967    954.5176  37.29     0.899     0.669   0.1530        386      29.9944
 5.45    588.6033  17.7178     13639.62    515.6739 -78.81     5.044     3.487   0.0148        387     185.8728
 7.03    611.3355  21.5771     390.0044   1449.9126  52.31     1.030     0.825   0.2008        388      72.1277
 4.63    601.9459  19.0378     4043.592    612.1100  60.11     3.980     2.061   0.0396        389      147.606
 6.59    609.1462  21.9837     268.1736   1537.6655  58.73     0.874     0.598   0.2149        390      53.0692
 5.75    608.1813  22.4423     175.7949   1312.4056  70.89     0.743     0.451   0.2286        391     37.00073
 5.61    607.5947  21.1018     604.1976    329.7262  -7.51     1.893     0.877   0.1435        392     79.84911
 4.00    621.3207  21.3096     498.9434    681.4517 -84.93     1.100     1.005   0.1019        393     46.80263
 5.46    628.2124  19.9140     1804.292   1543.8500  89.13     2.261     1.854   0.0747        394     124.1436
 3.50    599.3469  19.3911     2920.486   1836.8785 -27.72     2.648     2.165   0.0348        395     93.60526
 4.53    600.4128  20.7546     831.8792   1323.3213 -35.05     1.755     1.296   0.1000        396     76.59879
 5.16   1381.6946  21.4113     454.3447    856.3865  60.69     1.540     1.116   0.1775        397     74.26528
 4.65    583.1681  21.9217     283.9392    835.7344 -58.46     1.321     0.725   0.1929        398      50.4235
 3.50    627.1642  19.4915     2662.543   1632.3521  88.07     1.564     1.486   0.0243        399     59.66188
 4.36    624.3489  22.2604     207.8406   1013.4492 -34.70     1.085     0.443   0.1729        400     33.09446
 3.50    568.4687  15.6600      90765.2   1082.3079 -76.51     1.975     1.901   0.0009        401     74.79013
 5.35    574.3279  20.7548     831.7051    578.2115  11.37     1.327     1.190   0.0973        402     74.52817
 5.31    572.0139  20.4503      1100.96    491.9037  72.63     1.575     1.449   0.0875        403     88.66951
 5.53    596.0669  20.4767     1074.573    586.8943 -61.29     1.317     1.233   0.0792        404     78.36572
 3.50    558.8999  14.5530       251609   1759.1218 -86.40     2.144     2.002   0.0003        405     80.82291
 4.97    593.9507  21.5372     404.6062   1415.5542 -80.01     1.276     0.943   0.1628        406     60.63735
 5.57    570.0718  22.0432      253.873   1581.6373  21.72     0.913     0.684   0.2090        407     48.84737
 7.97    569.3273  22.1651     226.9252   1566.6769  45.19     0.570     0.337   0.1940        408     40.53227
 8.16    601.4727  22.0598     250.0364    490.4617 -45.91     0.510     0.487   0.1959        409     45.10015
 3.50    563.2668  19.5453     2533.861   1652.2384 -88.32     1.521     1.437   0.0246        410     57.32129
 8.15    619.9500  20.4813     1070.031    517.4706 -29.54     1.648     0.788   0.1043        411     102.7681
 6.80    560.0000  22.6735     142.0673    108.9715   0.00     0.867     0.289   0.2746        412     35.92802
 6.28    556.6886  21.4873     423.6394   1939.0840  79.77     1.191     0.783   0.1712        413     66.77728
 7.96    589.3134  21.1909     556.5859   1936.1631 -37.93     1.080     0.690   0.1500        414     76.85369
 3.83    587.0591  18.6546     5755.221   1693.5433 -77.14     2.479     2.292   0.0192        415     101.8121
 6.51    554.0786  21.1916     556.2302    294.3832  66.55     1.359     0.878   0.1545        416     79.11089
 6.16    548.3327  19.8000     2004.063   1976.0728  52.10     2.139     1.550   0.0673        417     124.1436
 6.27    597.6592  21.7709     326.2528   1392.5438 -23.11     0.947     0.823   0.2050        418     61.59737
 5.08    550.1031  22.0187     259.6836      3.6832  24.66     1.220     0.646   0.1886        419     45.10015
 3.90    546.6271  19.7520     2094.642    189.1976  87.20     1.577     1.376   0.0335        420     64.69462
 4.23    541.5827  20.3711     1184.261   1521.5017 -66.30     1.514     1.328   0.0607        421     66.18892
 5.14    538.6405  20.4134     1139.111    623.9872  62.64     2.243     1.741   0.1080        422     113.2696
 3.50    540.6843  22.1739     225.0864   1625.6914   1.67     1.224     0.620   0.1625        423     33.68025
 7.56    540.6646  21.2908      507.682    507.2748 -41.21     1.468     0.545   0.1600        424     74.79013
 8.51    540.3316  22.3671     188.3975   2033.9973  28.13     0.919     0.210   0.2336        425     40.53227
 4.38    535.6751  20.5701     985.9646   1645.0503  36.13     1.576     1.265   0.0764        426     69.36315
 3.50    533.0974  18.4443     6985.354    290.3786 -80.92     1.719     1.612   0.0100        427     64.08714
 6.12    535.0286  22.6978      138.932    693.0000  90.00     0.875     0.289   0.2633        428     33.68025
 5.34    533.4761  21.7058     346.4144   1798.9026  79.82     0.989     0.888   0.1732        429     55.23617
 5.40    532.8289  20.9790     676.5454   1052.8394 -84.42     1.158     1.088   0.1081        430      67.3605
 5.61    532.7427  20.8763      743.689    857.4479 -36.17     1.659     1.178   0.1262        431     86.43566
 7.25    526.1502  19.8287     1951.782    273.9409  88.49     2.957     1.197   0.0841        432     151.1411
 3.69    621.4937  19.5964     2417.286    250.5781  61.67     1.491     1.428   0.0264        433      58.6702
 3.56    522.7135  18.4743       6794.7   1314.6228   1.88     4.268     2.526   0.0207        434     129.6912
 6.06    525.7426  21.4182     451.4785    260.7639  53.57     1.170     0.867   0.1634        435     67.93871
 7.73    525.9880  22.6352     147.1714   1128.0000  90.00     0.846     0.289   0.3096        436     41.95488
 3.50    526.1630  20.7401     843.0779   1007.2003  76.52     1.349     1.153   0.0614        437     47.63106
 6.98    521.9870  22.2854     203.1189   1246.5035 -88.24     0.810     0.500   0.2590        438     48.44533
 3.50    520.7074  22.3142     197.8031   1590.0422  54.77     1.010     0.633   0.1682        439     30.63951
 3.50    520.0105  22.3366     193.7531    945.8856  88.35     1.037     0.612   0.1753        440     31.27132
 5.50    518.7725  21.2654       519.71    396.1662 -56.35     1.347     1.048   0.1513        441     72.39835
 5.62    514.6954  21.9722     271.0391   1904.8867  82.60     1.016     0.761   0.2185        442     54.52342
 3.52    510.3755  20.2873     1279.355   1362.8972 -58.95     2.031     1.421   0.0567        443     66.77728
 7.31    514.1923  21.7928     319.7432    276.8227 -43.00     0.767     0.565   0.1802        444      53.0692
 3.50    506.9413  19.2686     3269.408   1747.9512 -85.52     2.808     1.763   0.0287        445     86.43566
 8.56    508.2901  22.3148     197.6893   1204.6816  43.29     0.551     0.345   0.2305        446     41.95488
 8.22    507.0023  22.3283     195.2473   1943.5078  58.08     0.803     0.311   0.2509        447     45.10015
 3.50    505.1143  22.6991     138.7648   1624.2030  46.36     0.750     0.562   0.2077        448      26.5346
 6.64    501.5038  21.5295     407.4813   1975.9979 -62.89     1.012     0.666   0.1581        449     59.33317
 3.50    500.7779  21.8335     307.9777   1320.3223 -14.36     0.956     0.858   0.1248        450     35.37946
 7.20    495.2811  22.7730     129.6266    543.3665 -40.84     0.567     0.336   0.2822        451     33.68025
 5.96    493.1146  21.3241     492.3271    528.3224  57.82     1.579     0.806   0.1667        452     75.57057
 6.84    493.3953  22.3185     197.0177   1804.7678 -18.49     0.745     0.451   0.2413        453     43.77985
 6.23    491.1331  22.3142     197.8031    554.3484 -76.50     1.072     0.417   0.2615        454     47.63106
 3.53    490.9742  22.1641     227.1287   1358.0776  48.11     1.064     0.755   0.1718        455     35.92802
 7.69    485.6524  22.4010     182.6091    880.6906 -46.74     0.573     0.335   0.2232        456     37.52559
 5.00    482.7542  21.4710     430.0293   1374.2797  40.51     1.189     1.034   0.1539        457     60.95903
 4.21   1444.3547  20.2706     1299.168     47.3634  -3.45     1.612     1.388   0.0587        458     70.20395
 3.50   1478.4851  21.6127      377.429   1090.6329 -67.16     1.330     0.911   0.1194        459      41.4861
 3.50   1471.1533  19.2637     3284.075   1145.3591   2.02     1.606     1.505   0.0199        460     60.31395
 3.66   1465.1858  19.8969     1832.917   1732.6040  24.33     2.413     1.687   0.0482        461     81.30544
 4.63   1464.9772  19.1240     3735.063    836.6580 -76.41     3.239     2.279   0.0407        462     139.8496
 7.43   1475.3823  22.1068     239.4401    204.8076 -19.16     0.762     0.441   0.2179        463     48.03992
 6.57   1457.6825  22.2263      214.481    624.8443 -68.17     0.754     0.650   0.2611        464     51.57399
 6.81   1429.3328  22.7049     138.0267   1602.6957  46.46     0.564     0.340   0.2557        465     32.49812
 7.94   1453.9739  21.7571     330.4224    863.9976  45.27     0.899     0.531   0.1961        466     59.66188
 5.79   1457.7042  21.1375     584.6824     13.9544   9.69     1.604     0.979   0.1506        467     81.06454
 7.22   1462.1711  21.9197     284.4706    822.4290  13.35     0.864     0.623   0.2240        468      58.6702
 5.31   1450.1235  22.4455     175.2687   1211.6672  19.74     0.893     0.699   0.2821        469     45.53173
 3.50   1446.5693  17.3182     19706.61     96.7998   4.38     1.970     1.870   0.0041        470     74.52817
 6.92   1423.2209  22.4444     175.4443   2017.5829 -69.49     0.766     0.442   0.2710        471     43.77985
 5.59   1434.9784  20.9921     668.4315   1884.3225 -31.88     1.312     1.056   0.1189        472     73.20429
 5.54   1437.8689  20.4673     1083.935   1843.8029 -78.92     1.761     1.578   0.1024        473     102.1955
 6.15   1277.5562  21.9230     283.5944    682.7376 -88.02     0.983     0.716   0.2195        474     57.32129
 6.78   1443.7389  22.0370     255.3315   1736.4257  82.56     1.008     0.481   0.2210        475     51.95182
 4.52   1424.5807  19.9838     1691.886    332.1324  -1.35     1.559     1.402   0.0470        476     73.20429
 3.50   1423.4154  16.2457     52919.69   1943.1500 -11.84     1.947     1.906   0.0015        477     74.79013
 5.78   1284.1663  22.1922     221.3269   1246.6996  60.81     0.871     0.605   0.2296        478     46.80263
 4.76   1413.5928  21.4834     425.1682    575.4012  41.83     1.062     0.932   0.1365        479     53.43646
 4.67   1435.9822  21.0075     659.0613    765.4105  15.68     1.333     1.188   0.1076        480     65.29644
 7.51   1281.7185  22.3280     195.2944    298.9787  50.22     1.044     0.297   0.2556        481     45.95927
 3.50   1426.0511  18.1428     9221.235   1978.4106  17.22     1.777     1.649   0.0077        482     65.59528
 8.63   1285.5115  22.2690     206.2128   1109.5071 -44.27     0.501     0.498   0.2508        483     47.63106
 6.26   1422.8202  20.2920     1273.838   1197.0983 -43.84     1.644     1.423   0.0910        484     106.6898
 6.40   1287.0825  22.2072     218.2881    736.1198 -47.95     0.828     0.675   0.2603        485     52.32693
 4.87   1283.4214  20.8827     739.3379   1142.3677  29.86     1.613     1.231   0.1106        486     75.31133
 7.86   1386.7114  21.3241     492.3488    225.6094  31.69     1.046     0.804   0.1767        487     80.09367
 8.60   1387.3257  22.6013     151.8362    687.9958 -28.30     0.907     0.212   0.3001        488     41.95488
 5.37   1402.0786  20.1790     1413.523    832.3687   7.94     1.687     1.492   0.0726        489     94.43733
 4.89   1395.7573  20.0852      1541.03   1318.1010  47.87     3.062     1.460   0.0810        490     114.9833
 7.02   1401.9756  21.6980     348.9084     57.4891  26.13     1.063     0.662   0.2051        491     65.89277
 5.29   1407.2601  22.5357     161.2991    264.6245 -73.65     0.732     0.457   0.2228        492     33.09446
 3.50   1391.8485  21.2855     510.1423   1567.2444   9.85     1.267     1.094   0.0969        493     45.53173
 3.71   1403.6729  19.2894     3207.354   1200.6324   2.00     1.588     1.514   0.0217        494     64.08714
 7.44   1371.6896  22.9007     115.2489    307.6349 -42.76     0.580     0.331   0.3334        495     35.37946
 3.53   1394.3314  20.9544     692.0712   1172.3091  30.69     1.811     1.111   0.0872        496     55.58912
 4.40   1372.6488  19.3378     3067.426   1233.4043 -21.16     2.320     1.837   0.0354        497     100.0682
 5.04   1378.0073  21.7200      341.907   1841.9011  71.88     1.319     0.636   0.1614        498     50.80989
 3.89   1388.9640  22.0715     247.3556    910.5067  28.19     1.010     0.668   0.1504        499     34.25602
 4.69   1382.9066  20.7226     856.7878    703.0180  83.27     1.318     1.225   0.0843        500     66.48375
 3.60   1362.7996  19.9207     1793.272   1491.5574  72.12     2.873     1.519   0.0507        501     83.67636
 8.52   1387.2173  21.8571     301.3459   1136.1914  45.67     0.922     0.440   0.2174        502     60.31395
 5.43   1378.1823  21.0004     663.3722    243.1369 -11.62     1.184     1.086   0.1122        503     68.51204
 6.79   1380.7079  21.0408     639.1204     96.6683  -7.01     1.184     1.043   0.1422        504     83.67636
 3.50   1285.8525  21.2167      543.512   1184.7407  30.82     1.420     1.116   0.0984        505     49.24613
 6.23   1382.5972  21.1157      596.504   1176.6108  13.09     1.331     1.041   0.1471        506     80.82291
 8.33   1370.4879  21.4889     423.0049   1146.5778   0.01     1.089     0.500   0.1744        507     67.93871
 6.67   1360.1554  21.1851     559.5789    322.3924  37.39     1.191     0.907   0.1477        508     76.08642
 5.04   1361.2897  20.1079     1509.171   1774.8864 -32.47     2.037     1.597   0.0726        509      100.847
 6.09   1368.6033  22.6372        146.9    306.8033  18.63     0.776     0.445   0.2961        510     40.04684
 5.24   1362.6476  20.7860      808.196    416.3448  -8.47     1.534     1.282   0.1102        511     82.02392
 6.86   1356.4832  22.7765     129.2144   1675.4977  42.96     0.502     0.498   0.2974        512     35.37946
 6.54   1292.4087  21.4816     425.8489   1149.9143 -71.77     1.020     0.739   0.1603        513     62.85458
 6.13   1287.8756  21.8428     305.3549   1917.3287  22.78     0.909     0.690   0.1913        514     53.80122
 6.45   1363.3455  19.6870     2223.789    908.2305  88.04     2.653     1.624   0.0725        515     148.3988
 6.24   1345.8468  19.7795     2042.195    335.0818   3.50     2.179     1.786   0.0725        516     136.3085
 6.28   1357.2051  21.7520     331.9878    432.4785  37.45     1.019     0.832   0.2096        517     64.08714
 3.50   1282.9697  19.9323     1774.127   1671.5610  29.48     1.499     1.389   0.0338        518     55.23617
 5.65   1334.8995  20.0852     1541.113    754.8928  30.13     1.839     1.710   0.0780        519     110.6492
 4.13   1325.5820  21.1379     584.4308    406.5026   7.70     1.269     1.014   0.0951        520     51.19336
 3.62   1342.6849  19.3052     3161.027    540.1866  34.90     2.790     1.921   0.0319        521     92.76574
 3.97   1299.1901  19.0204     4108.967    501.2758  37.71     1.632     1.572   0.0188        522      71.0348
 7.88   1346.6704  22.5121     164.8434   1150.3325  44.87     0.575     0.334   0.2573        523     39.05787
 6.01   1339.4177  20.8329          774   1717.5381   2.16     1.397     1.013   0.1113        524     79.35773
 6.79   1326.2462  21.3088     499.3346    200.1274  59.62     1.369     0.837   0.1758        525     80.82291
 5.70   1337.0087  22.8519     120.5432    722.7664  89.61     0.692     0.423   0.3034        526     33.68025
 5.72   1323.8098  18.9324      4456.08    693.5496  50.62     3.572     3.078   0.0513        527      210.519
 4.92   1330.5728  19.6772     2244.065     24.0172  68.99     2.192     1.963   0.0547        528     113.0968
 7.85   1309.6018  21.9221     283.8323    750.2209 -18.86     0.780     0.443   0.1988        529     51.95182
 6.85   1308.9083  20.7960     800.7568   1091.2189   5.60     1.227     1.082   0.1200        530     88.44866
 7.75   1307.5765  20.2529     1320.482     78.8099 -40.65     2.099     1.740   0.0808        531     98.27377
 7.00   1301.0909  20.3617     1194.656    290.7180 -69.98     2.093     1.180   0.1104        532     121.4359
 7.86   1318.3771  21.9544     275.5275    259.1903  18.91     0.774     0.438   0.2003        533     50.80989
 5.91   1310.6531  20.5583     996.7125   1376.5684 -25.13     1.702     1.240   0.1042        534     95.67186
 5.55   1310.7493  21.1269     590.3744   1168.1692  39.89     1.342     1.036   0.1327        535      72.1277
 5.73   1320.7534  21.2964     505.0795    983.1468  44.68     1.502     0.890   0.1562        536     72.66799
 5.01   1310.3986  21.8063     315.7686   1808.3553 -84.63     1.462     0.599   0.1800        537     52.32693
 4.76   1299.4198  19.8854     1852.382   1317.7806  58.94     1.575     1.364   0.0452        538     77.10776
 3.66   1309.4922  19.3699     2978.123    798.8522  41.80     1.694     1.607   0.0244        539     66.77728
 5.75   1295.8743  21.1903     556.9164   1069.1823  69.34     1.196     1.079   0.1412        540     72.39835
 3.50   1266.9186  15.8030      79561.6   1865.4028 -70.53     2.160     2.005   0.0011        541     81.54564
 5.65   1281.4861  22.8501     120.7401    820.4706  46.46     0.506     0.493   0.2756        542     30.63951
 3.50   1298.0912  16.5634     39495.95     90.6914  20.30     2.035     1.911   0.0021        543     76.59879
 5.56   1296.3387  20.0609     1575.917    933.0851 -72.17     1.892     1.560   0.0726        544     105.3987
 8.60   1262.7897  20.9348     704.6791     77.3024 -18.56     1.107     0.673   0.1268        545     82.26201
 6.88   1282.4258  22.1888     222.0245   1789.7147   9.43     0.997     0.473   0.2541        546     51.95182
 3.50   1272.8008  18.7363     5337.981   1542.1091  18.60     1.705     1.588   0.0130        547     63.78124
 4.37   1261.3179  20.0957     1526.193    136.8403   1.23     1.620     1.352   0.0513        548      72.1277
 5.26   1204.5242  20.6831     888.5461    520.8858 -35.68     1.497     1.149   0.0946        549     77.36098
 3.64   1268.4229  20.1642     1432.952    201.0872 -16.62     1.589     1.380   0.0452        550     59.66188
 3.50   1270.7004  20.0691     1564.098    267.6858  27.94     1.673     1.402   0.0412        551     59.33317
 6.89   1278.4877  21.0153     654.3245   1161.5522 -74.05     1.163     1.037   0.1400        552     84.37465
 6.07   1197.4918  21.5063     416.3008    329.5014  36.41     1.229     0.821   0.1772        553     67.93871
 6.51   1268.2501  20.1493     1452.726     60.2472  44.89     1.749     1.417   0.0849        554     113.6144
 3.50   1239.1635  13.8053     500943.8    302.4638 -22.61     3.032     2.827   0.0002        555     112.9237
 5.98   1221.3828  21.8953     290.9192    147.0201 -62.72     1.062     0.656   0.2101        556     56.28838
 4.53   1257.8990  20.1799     1412.414    182.2134 -77.03     2.231     1.388   0.0680        557     88.44866
 5.07   1258.9125  21.1371     584.8787    516.7968  48.65     1.247     1.062   0.1196        558      64.3916
 6.85   1246.3550  21.4456     440.2021   1709.0836  77.00     1.008     0.749   0.1647        559     66.77728
 5.75   1258.9856  20.3112      1251.47   1140.7288 -80.03     1.703     1.447   0.0870        560     100.2635
 8.86   1265.2188  21.3818     466.8405    911.0001  57.13     0.809     0.500   0.1469        561     63.16498
 6.02   1253.1537  22.3618      189.317   1097.0356 -37.06     0.924     0.461   0.2460        562     42.87708
 7.66   1245.0609  21.4488     438.9177   1121.7810  73.45     1.387     0.603   0.1939        563     78.36572
 5.62   1234.6526  19.9924     1678.655   1695.4043  55.98     1.970     1.684   0.0734        564     113.4421
 5.47   1227.2411  20.2400     1336.365   1115.0430 -63.66     1.898     1.679   0.0882        565     108.5074
 6.78   1225.6133  21.5706     392.3365   1073.4044  66.15     1.079     0.782   0.1920        566     69.36315
 6.84   1241.1576  22.0265      257.826    349.8765 -24.95     1.484     0.305   0.2156        567     51.19336
 6.22   1236.0344  21.2059     548.9751    541.2469  82.39     1.262     0.943   0.1500        568     75.82893
 7.57   1239.4661  22.5030     166.2256   1932.4819  43.96     0.510     0.488   0.2801        569     42.87708
 3.50   1255.9093  18.6065     6015.998     49.7129   4.19     1.866     1.652   0.0122        570     67.65022
 3.50   1229.2749  17.1924     22128.14    595.7915  47.62     2.157     1.892   0.0038        571     78.11575
 4.88   1212.6672  20.9778      677.309   1131.0668  79.17     1.239     1.127   0.1028        572     64.08714
 4.18   1229.5063  20.7923     803.4969   1200.5521  64.26     1.342     1.206   0.0793        573      58.6702
 4.09   1217.6862  18.2540     8323.832   1629.3969 -25.59     8.951     1.854   0.0240        574     184.2621
 7.32   1226.3347  22.6327     147.5073    670.6466  44.29     0.586     0.328   0.2522        575     34.25602
 6.17   1228.6835  23.1302     93.28833   1340.3242  44.61     0.566     0.339   0.3567        576     30.63951
 4.20   1221.0681  20.3101     1252.796    133.3032  84.03     1.473     1.372   0.0579        577     66.77728
 4.86   1219.6068  20.2953     1269.961    566.9706 -53.78     1.579     1.356   0.0666        578     77.86497
 7.23   1224.5118  22.4856     168.9072     36.5060 -44.02     0.501     0.498   0.2667        579      41.4861
 6.13   1206.9877  21.2247     539.5475    976.8775 -40.26     1.265     0.988   0.1516        580     75.31133
 5.86   1210.9033  22.1435       231.47    944.6482 -18.09     0.950     0.672   0.2455        581     52.32693
 3.87   1201.9672  19.4844     2680.179    708.7508  30.60     2.502     1.559   0.0346        582      85.2968
 4.14   1219.2921  20.9817      674.854   1581.8531  43.60     1.480     1.246   0.0991        583     61.59737
 5.86   1207.9786  19.7635      2072.62    583.9460   1.33     3.801     1.246   0.0744        584     141.9319
 6.96   1197.8501  21.7766     324.5533   1002.2520  24.52     1.070     0.520   0.1918        585     57.32129
 8.41    929.6972  22.2382     212.1447   1364.6554 -42.98     0.568     0.337   0.2099        586     41.01196
 4.92   1215.1185  21.3272     490.9438    373.3947  30.58     1.340     1.034   0.1424        587      64.3916
 3.50   1212.3392  20.8410     768.2325    198.5787  13.15     1.328     1.235   0.0691        588     48.84737
 5.17   1154.3766  19.5539     2513.996    571.9539  11.07     2.250     1.798   0.0496        589      114.813
 4.49    924.3514  20.3274     1233.002    787.2057 -84.01     2.098     1.612   0.0810        590     91.91855
 4.66    925.8179  21.9452     277.8503    719.6808 -23.57     1.327     0.554   0.1796        591     45.95927
 6.13   1202.0239  21.0066     659.5936    991.6090 -58.47     1.677     1.032   0.1467        592     89.10956
 7.97   1200.9851  21.0343     642.9526    327.5172 -38.05     1.317     0.831   0.1560        593     92.34312
 5.94   1193.1785  22.3499     191.4022   1195.0081  36.14     0.941     0.471   0.2459        594     43.33082
 7.30   1182.3431  20.8866     736.6428   1068.4923  57.58     1.718     0.920   0.1504        595      102.004
 3.50   1189.0765  17.1843      22293.3   1739.9891 -57.02     1.871     1.835   0.0035        596     72.66799
 6.36   1186.5062  21.0250     648.4791    675.0905 -28.60     1.211     1.037   0.1333        597      79.6038
 7.56    934.0082  22.4671     171.8105   1459.5264  56.89     0.768     0.323   0.2739        598     43.33082
 3.50    921.6456  18.8400     4851.824    302.9420  27.23     1.668     1.535   0.0138        599     61.59737
 3.50   1169.2021  15.5008     105093.5   1561.2112  38.89     2.015     1.973   0.0008        600     77.86497
 7.41   1193.0337  20.2858     1281.132    448.3813 -18.39     1.822     1.067   0.0973        601      114.813
 3.62   1191.8678  21.1533       576.22    693.2235  29.52     1.603     1.067   0.1000        602      53.0692
 5.89    929.9730  20.9496     695.1067   1416.5898  78.53     1.238     1.115   0.1201        603     76.85369
 3.50   1181.7966  21.2807     512.3988     31.9386  32.78     1.287     0.990   0.0928        604     43.77985
 3.96   1173.1836  21.5913     384.9253   1824.6155 -62.87     1.140     0.903   0.1272        605     45.10015
 5.61    940.9605  21.7766     324.5261   1352.2043  55.53     1.109     0.808   0.1952        606      58.3359
 4.13   1159.3572  19.7712     2057.891   1887.5924  77.50     1.727     1.644   0.0343        607     65.06059
 6.73   1153.5958  21.6572     362.2792   1480.2291   4.23     1.223     0.627   0.1939        608     64.69462
 7.56   1174.3413  22.8309     122.8984    763.9869 -28.29     0.922     0.209   0.3316        609     37.52559
 4.68   1171.6003  19.8726       1874.4    322.1519  54.56     2.325     1.287   0.0520        610     89.76559
 4.10   1149.1749  21.6473     365.5756   2029.4822  74.37     1.204     0.962   0.1463        611     49.24613
 6.54   1169.8400  22.3886      184.708    729.1714 -46.96     0.757     0.569   0.2872        612     48.84737
 4.67   1141.4587  20.9945      666.985   1197.8701 -86.64     2.033     1.160   0.1296        613      79.6038
 3.50   1149.3799  20.7229     856.5367   1106.8113 -28.67     1.352     1.198   0.0619        614     48.84737
 6.81    935.4976  22.4734     170.8229   1763.0057 -32.77     0.779     0.320   0.2318        615     36.46832
 5.11   1087.5201  22.0782      245.823    491.7673  -8.35     0.986     0.484   0.1703        616     38.55388
 8.49    937.7055  21.6110     378.0087    700.0148   3.60     0.734     0.684   0.1935        617      67.3605
 6.66    938.8285  20.9070     722.9161   1368.9866  34.35     1.392     1.009   0.1315        618     87.55971
 4.71   1153.1973  20.1289     1480.346   1882.7738   4.24     2.852     1.232   0.0590        619     80.44666
 5.94   1143.6841  21.0121     656.2258    360.9882 -88.29     1.211     1.102   0.1268        620     76.59879
 3.82   1139.0198  18.7569     5237.958   1626.7067 -48.85     3.657     2.285   0.0253        621     122.0784
 3.50   1106.7648  22.5020     166.3782    493.7899  47.26     0.759     0.558   0.1732        622      26.5346
 7.08   1154.9832  22.4700     171.3568    967.9976 -89.91     0.626     0.605   0.3096        623     48.84737
 5.46   1114.0339  22.2605      207.823   1883.9581 -45.96     0.902     0.524   0.2118        624     40.53227
 3.50    936.6500  16.8882     29283.77    352.5421 -53.68     1.901     1.856   0.0027        625     73.20429
 7.41   1103.3442  22.9699     108.1283    481.3177 -46.18     0.575     0.334   0.3553        626     35.37946
 6.16   1140.8552  22.4508     174.4135   2046.3901 -69.13     0.788     0.427   0.2369        627     38.04321
 5.23   1138.3490  20.8069     792.7859   1215.6082  76.26     1.303     1.132   0.0977        628     71.30959
 4.28   1137.8800  21.2272     538.3053   1852.0220 -42.99     2.402     0.744   0.1287        629     63.78124
 4.89   1144.5480  20.6303     932.7742   1658.5836 -37.49     1.510     1.306   0.0892        630     76.59879
 3.50   1121.0311  19.2121     3443.919    586.0181  31.46     1.595     1.564   0.0194        631     61.59737
 4.53   1104.5669  21.5932     384.2789    624.3561 -47.62     1.017     0.871   0.1323        632     46.80263
 3.50    932.2147  18.0567     9982.522    215.0986 -30.55     1.778     1.710   0.0073        633      67.3605
 7.29    943.8810  21.3800     467.6427   1611.5468  14.94     1.038     0.731   0.1624        634      69.9248
 5.27   1128.9608  20.4243     1127.708   1275.8376 -48.30     2.694     1.234   0.1026        635     106.5063
 8.35   1133.7952  21.9273      282.479   1417.6117  71.86     0.759     0.449   0.2068        636     53.80122
 3.85   1103.9784  20.3107     1252.066   1551.9440  70.02     2.257     1.559   0.0703        637     81.06454
 4.24   1127.2012  20.4427     1108.685   1527.4050  13.26     1.357     1.304   0.0616        638     62.85458
 7.10    946.3470  21.0371     641.2943   1338.2930 -46.08     1.269     0.996   0.1505        639     88.88981
 7.53   1119.7881  21.2338     535.0195   1639.7593  43.10     1.582     0.660   0.1727        640      85.0672
 6.07   1103.7527  22.8178     124.3881    845.0017   0.08     0.687     0.431   0.3230        641     37.00073
 7.98   1119.9193  22.4551     173.7325    359.2986  62.80     0.915     0.209   0.2442        642     39.05787
 5.36   1115.3451  21.9432     278.3611   1293.2561 -19.33     1.328     0.511   0.1890        643     48.44533
 4.59   1099.6655  19.1259     3728.447    638.4382 -87.44     2.294     2.056   0.0319        644     109.5836
 7.04    952.3949  22.1812     223.5758   1326.8047 -18.69     0.765     0.446   0.2191        645     45.10015
 3.50    957.8949  16.8087     31509.69    930.3990 -67.08     1.847     1.842   0.0025        646     71.58334
 6.78   1105.1674  22.0797     245.4893    795.9977 -59.64     0.817     0.504   0.2107        647     47.63106
 4.20   1091.0619  19.1276     3722.769   1610.5203 -32.08     2.555     2.173   0.0320        648     109.7619
 3.94    967.9491  21.8571      301.354   1575.0994  -8.39     1.111     0.729   0.1371        649     38.04321
 4.93   1109.0151  21.2889     508.5647   1999.1575  54.82     1.496     0.859   0.1329        650     62.22915
 3.50   1092.4526  22.4817     169.5286   1735.2744 -10.03     1.010     0.473   0.1746        651     27.26171
 5.00   1112.2089  19.5042     2631.669   1533.3240 -26.06     2.245     1.708   0.0447        652      108.327
 5.45   1092.9911  22.9339      111.776   1646.7373 -89.50     0.677     0.440   0.3272        653     33.68025
 3.97    946.8084  20.0506     1590.915   1430.5894  11.94     1.404     1.325   0.0412        654     60.31395
 6.12   1103.5314  21.3846     465.6694    788.0107   8.21     1.110     0.949   0.1631        655      69.9248
 3.50   1092.2699  21.2458     529.1663   1971.9415  73.85     1.662     0.942   0.1002        656     48.84737
 6.95   1090.8210  22.3176     197.1903   1206.6062  70.95     0.773     0.443   0.2411        657     43.77985
 4.57   1079.5156  22.2283      214.095   1400.8241 -52.49     0.883     0.652   0.1956        658     38.55388
 4.80   1088.5111  20.8222      781.682   1185.1421  46.36     1.460     1.386   0.1050        659     75.57057
 5.69    969.1307  20.7513     834.4602    389.6080 -67.51     1.427     1.372   0.1145        660     88.00531
 3.50    951.6745  20.0027     1662.779   1526.5834  -3.84     1.487     1.334   0.0354        661     54.16352
 6.87    967.3345  22.7721     129.7439   1707.6731  45.34     0.575     0.335   0.2720        662     32.49812
 3.50   1050.5199  21.7203     341.8262   1862.3424 -18.69     1.130     0.886   0.1241        663     39.05787
 3.50   1020.8841  19.2508     3323.361   1010.9355 -15.18     1.650     1.552   0.0201        664     61.59737
 3.50   1069.8655  16.0262     64775.51    876.6837  -4.01     1.972     1.934   0.0013        665     75.57057
 5.36   1029.0317  22.2220     215.3385   1771.9504 -45.95     0.902     0.529   0.1970        666     39.05787
 5.76   1071.8950  21.4066     456.3147   1224.4510  58.53     1.366     0.865   0.1657        667     69.64455
 4.29   1072.7828  20.3003     1264.116   1170.6187  72.36     1.354     1.323   0.0548        668     63.78124
 4.44   1060.1554  21.9564     275.0105   1753.5573  45.19     1.072     0.738   0.1729        669     43.77985
 3.50   1062.5050  20.7886     806.2799   1972.8905  45.25     1.737     1.338   0.0786        670      58.3359
 3.50   1057.5260  15.8728     74607.09   1010.5455 -57.79     1.967     1.948   0.0011        671     76.08642
 5.50   1044.0858  21.7786     323.9463   1977.6151 -17.75     1.084     0.736   0.1852        672     55.23617
 3.66   1065.6782  20.3155     1246.502    568.8046  31.03     1.471     1.378   0.0505        673     57.99967
 8.72   1068.2827  21.2085     547.6742    528.7635   7.95     0.954     0.649   0.1504        674     75.82893
 4.09   1065.3999  19.9377     1765.382    160.9210  57.17     1.466     1.426   0.0400        675     64.99623
 7.73   1068.7130  22.4756     170.4756    320.6397 -41.44     0.567     0.337   0.2456        676     38.55388
 3.50   1046.8184  19.5520     2518.291   1929.7161  15.27     1.522     1.444   0.0249        677     57.66147
 3.72   1022.7156  19.7053     2186.633    281.3616  29.04     1.641     1.461   0.0321        678     64.69462
 4.11   1062.8107  19.7948     2013.581    239.4120  19.67     1.590     1.415   0.0368        679     68.22598
 3.50   1023.2704  18.6228     5926.597    133.8412   3.76     1.738     1.609   0.0119        680     64.69462
 8.42   1052.0168  22.3526     190.9335    903.4855 -58.06     0.802     0.312   0.2565        681     45.10015
 3.78   1054.1937  21.0491     634.2498    816.8259 -47.80     1.308     1.105   0.0863        682      50.4235
 3.50   1036.8643  17.8332     12264.05   1563.0876  21.32     1.761     1.717   0.0060        683     67.65022
 8.45   1048.6095  21.9292     281.9813   1717.8318  18.69     0.769     0.444   0.2100        684     54.52342
 3.50   1043.8729  21.3289      490.173   1077.4695 -35.68     1.267     0.941   0.0940        685     42.41849
 3.79   1033.0895  19.6982     2201.022    531.0017  -5.04     1.559     1.423   0.0305        686     61.91406
 3.50   1017.6852  23.3631     75.27893   1140.6986 -45.78     0.555     0.344   0.2210        687     15.31976
 6.77   1022.5448  21.4962     420.1714   1559.8611   5.86     1.336     0.927   0.2145        688      82.9722
 5.85   1031.1016  20.9871     671.5261    122.0657  11.89     1.168     1.097   0.1188        689     73.47098
 4.13   1011.1091  20.0590     1578.714   1579.4246  77.68     2.498     1.769   0.0658        690     95.67186
 3.50   1025.5179  18.7653     5197.441   1857.7148  22.68     1.709     1.569   0.0134        691     64.08714
 3.50   1010.6112  18.1693     8998.546    636.2482  -3.56     1.771     1.673   0.0081        692     67.06952
 3.71   1005.8275  22.1995     219.8339    162.7166  22.52     1.134     0.661   0.1748        693     35.37946
 4.37    968.9935  20.2523     1321.297   1726.7722 -82.61     1.431     1.374   0.0558        694     67.93871
 3.64   1011.6836  21.7410     335.3433   1805.4214 -81.58     1.080     0.871   0.1249        695     38.55388
 3.50    991.0410  13.7639     520389.3   1169.2328 -48.76     2.325     2.153   0.0002        696     86.43566
 6.93    998.0200  22.5980     152.3015    584.0000  90.00     0.846     0.289   0.2638        697     37.00073
 6.60    997.3103  22.9912     106.0319   1199.6776  44.36     0.562     0.341   0.3329        698     32.49812
 3.69    994.8913  22.1724     225.3931   1103.3905 -15.00     1.062     0.754   0.1757        699     36.46832
 3.50    987.9515  18.9911     4221.679   1835.4211   0.96     1.644     1.506   0.0161        700     62.54265
 5.45    987.0768  20.9243     711.5184    548.0386  54.93     1.474     1.057   0.1157        701     75.82893
 4.68    981.2454  22.0812     245.1506   1935.4275  -0.05     0.976     0.713   0.1899        702     42.87708
