#   1 KRON_RADIUS            Kron apertures in units of A or B                         
#   2 Y_IMAGE                Object position along y                                    [pixel]
#   3 MAG_BEST               Best of MAG_AUTO and MAG_ISOCOR                            [mag]
#   4 FLUX_BEST              Best of FLUX_AUTO and FLUX_ISOCOR                          [count]
#   5 X_IMAGE                Object position along x                                    [pixel]
#   6 THETA_IMAGE            Position angle (CCW/x)                                     [deg]
#   7 A_IMAGE                Profile RMS along major axis                               [pixel]
#   8 B_IMAGE                Profile RMS along minor axis                               [pixel]
#   9 MAGERR_BEST            RMS error for MAG_BEST                                     [mag]
#  10 NUMBER                 Running object number                                     
#  11 FLUXERR_BEST           RMS error for BEST flux                                    [count]
 3.50    180.8025  13.7068     546123.1   1107.5068 -40.47     5.305     4.911   0.0004          1     196.0455
 3.82     52.3876  16.5393     40204.24     63.7599  12.65     4.889     4.352   0.0052          2     193.8792
 3.50     15.3538  18.7019     5485.978    985.1421  89.51     4.152     1.817   0.0210          3     105.8842
 3.50     17.1948  19.1083     3773.076     91.4487  25.82     1.575     1.489   0.0170          4     59.10995
 3.50     13.1969  18.0889     9648.225   1445.7733  19.73     1.619     1.607   0.0069          5     61.65346
 4.82     16.1952  21.6236     372.0013    384.7507 -82.74     1.040     0.832   0.1447          6     49.57125
 5.14      8.6855  22.3715     186.8147   1183.2109  55.80     0.736     0.647   0.2306          7     39.67636
 7.33      2.7085  21.7552     329.5613    145.8148 -33.09     0.875     0.617   0.1684          8     51.09687
 4.92     23.7039  20.6542     908.4659    367.3350  33.24     1.400     1.202   0.0831          9     69.55448
 3.50     58.4521  16.4128      45172.5   1078.4691  60.08     2.004     1.825   0.0018         10     73.31686
 6.44     22.8706  21.7712     324.7379    383.1711  64.69     0.903     0.881   0.2103         11     62.88665
 5.73     32.3587  20.9953     663.5773   1110.2778  61.87     1.909     0.974   0.1402         12     85.63603
 8.26     31.9549  21.6781     353.8103    327.5183  -0.16     0.834     0.695   0.2118         13     69.00026
 4.55     29.5238  22.9071     114.0623   1488.5518  53.04     0.502     0.495   0.2360         14     24.78562
 3.50     36.4591  22.1618     226.6095   1521.2543  88.55     0.962     0.704   0.1455         15     30.35607
 3.50     37.5751  21.9246     281.9377   1170.7378  74.65     1.001     0.831   0.1371         16     35.59564
 3.50     41.3325  22.0971     240.5214    915.3849 -71.33     0.925     0.818   0.1532         17     33.93911
 5.84     48.2341  22.1878     221.2571   1435.5917 -73.14     0.939     0.620   0.2433         18     49.57125
 7.43     44.4676  22.2297     212.8651    439.4663  45.21     0.505     0.493   0.2097         19     41.10231
 3.50     79.1055  16.4516     43587.69    537.7455  -7.17     1.905     1.803   0.0018         20     71.46044
 7.23     48.9591  22.6547     143.9149    265.6837 -62.34     0.919     0.209   0.2561         21     33.93911
 3.50     49.6731  23.4324     70.31348    881.6414 -43.79     0.585     0.328   0.2344         22     15.17803
 3.68     74.2168  20.0540     1579.123    128.1347  16.43     1.453     1.362   0.0393         23     57.12804
 6.56     81.3308  21.0401     636.7502    421.5560  14.70     1.444     0.928   0.1422         24     83.36411
 3.50    120.5688  16.0280     64389.45    789.1948 -13.45     1.945     1.857   0.0012         25     72.26189
 3.77     95.9662  19.6263     2341.362     56.2917 -62.18     1.594     1.443   0.0289         26     62.27311
 5.83     89.3102  20.6247     933.5336    377.3141 -38.38     1.743     1.423   0.1178         27     101.2501
 6.46     90.6747  21.9139     284.7437    495.9820  -2.31     0.749     0.659   0.1876         28     49.18245
 5.12     96.8231  21.1417     579.8691    453.5879  -1.99     1.647     1.056   0.1388         29     74.09824
 6.92     94.6633  22.5917     152.5197   1075.6849 -46.02     0.571     0.337   0.2293         30     32.19747
 4.63    107.2189  22.8061     125.1852    864.3951  69.69     0.764     0.438   0.2578         31     29.71692
 5.47    116.1657  22.5600     157.0369     67.0152 -37.07     0.956     0.468   0.2777         32      40.1573
 5.68    114.5088  22.5494     158.5779    415.9769  -1.48     0.785     0.500   0.2750         33      40.1573
 5.45    117.2253  22.7708     129.3289    154.0176  -0.79     0.680     0.418   0.2704         34     32.19747
 3.50    192.6793  14.4379     278513.1    318.1504 -35.77     2.258     2.100   0.0003         35     83.36411
 3.50    160.8442  16.6546     36152.73   1468.3263  32.56     1.817     1.772   0.0021         36     69.27792
 6.94    130.3049  21.8565     300.2009    418.0578  11.62     0.737     0.671   0.1915         37     52.94212
 7.48    128.5032  22.5467     158.9691    885.4984 -44.99     0.511     0.489   0.2808         38     41.10231
 3.99    233.9326  16.4465      43791.3    403.7292 -45.90     6.189     4.943   0.0060         39     242.6904
 5.80    145.8660  22.2461      209.677    353.8374  45.43     0.758     0.568   0.2129         40     41.10231
 3.50    169.0738  18.2339     8441.844    877.3600  -0.21     1.811     1.626   0.0084         41     65.28319
 4.75    163.4660  21.0805     613.4713   1445.8378 -23.66     1.138     1.080   0.1023         42     57.79623
 5.14    170.6974  20.1910     1391.812    325.4989   6.39     1.576     1.409   0.0654         43     83.82343
 4.76    165.8175  21.1740     562.8336    104.6417 -54.54     1.220     0.975   0.1115         44     57.79623
 3.50    167.7950  22.6870     139.6981   1369.1718 -42.16     0.744     0.561   0.1986         45     25.54844
 7.61    178.5435  21.2426     528.4033    575.4573  44.31     1.052     0.847   0.1631         46     79.35271
 6.94    185.9523  21.5934     382.5141   1354.6979 -52.81     1.294     0.938   0.1436         47     50.59229
 5.21    191.0763  20.4483     1098.164   1350.5454 -13.49     1.353     1.260   0.0743         48     75.12743
 4.94    209.4249  18.8206     4917.457    827.9134  -4.21     3.727     1.958   0.0325         49     147.2869
 3.68    205.5385  20.0347     1607.352    549.2784   9.24     1.463     1.317   0.0381         50     56.45195
 7.89    194.3135  22.3354     193.1285    267.3212 -44.60     0.563     0.340   0.2148         51     38.19721
 3.93    207.8263  20.7276     849.0942    349.9734  26.86     1.598     1.246   0.0772         52      60.3951
 3.64    210.7312  20.0305     1613.578   1306.1472  14.08     1.424     1.333   0.0373         53     55.42234
 4.96    228.9519  18.9240     4470.749    562.1378  -2.68     3.267     2.880   0.0407         54     167.6469
 5.51    202.2209  22.0049     261.8525    250.6948  19.01     0.900     0.662   0.1940         55     46.78184
 6.42    209.4440  21.2312     533.9904    684.6512  51.31     1.070     0.953   0.1442         56      70.9211
 3.50    222.4275  19.8567     1893.685   1226.1467  26.90     1.444     1.306   0.0304         57     52.94212
 4.29    221.1967  20.9699     679.2919    774.8510   3.07     1.228     1.136   0.0892         58     55.76765
 3.50    258.4975  15.3502     120201.3    997.4428   8.11     2.053     1.906   0.0007         59     76.14271
 5.01    221.7230  21.0091     655.1876    345.9449  26.84     1.363     1.228   0.1176         60      70.9211
 3.50    265.1008  15.7583     82542.18     67.5865  -2.07     2.031     1.879   0.0010         61     75.38253
 6.91    228.2284  21.7782     322.6312    548.3456  10.53     0.891     0.762   0.2096         62     62.27311
 5.02    243.4180  20.2410      1329.28    113.3172 -81.86     1.880     1.407   0.0730         63     89.36584
 4.47    237.7224  21.1821     558.6559    838.9177 -36.64     1.282     1.044   0.1104         64       56.791
 4.47    254.3776  19.1571     3607.082    612.7912 -27.80     2.549     1.747   0.0311         65     103.3147
 5.78    238.9854  22.8803     116.9178   1479.5089 -58.19     0.806     0.310   0.2820         66     30.35607
 8.68    236.4917  22.1791     223.0266    211.9850  32.53     0.785     0.318   0.2258         67     46.36966
 5.63    250.5946  21.1366     582.5846   1372.9886  82.89     1.452     0.974   0.1367         68     73.31686
 3.50    251.9105  21.9106     285.6122   1352.6121  63.62     1.263     0.828   0.1490         69     39.18951
 8.20    246.5130  22.4190     178.8199   1414.5033 -14.22     0.500     0.500   0.2714         70     44.68292
 6.75    249.7955  21.3745     467.9304    107.1974   0.96     1.090     0.760   0.1562         71      67.3102
 3.50    311.3768  14.2196     340530.4    439.4229 -11.23     2.197     2.011   0.0003         72     81.02852
 3.50    286.0472  17.3438     19163.92   1486.4139  20.36     1.721     1.687   0.0037         73     64.98846
 5.21    269.0456  21.5084     413.6603   1273.5546 -82.61     1.127     1.072   0.1643         74     62.58063
 3.50    280.2949  18.9871     4218.448   1522.3615 -76.25     1.530     1.486   0.0150         75     58.12744
 5.23    264.6647  22.8987     114.9498    124.9794 -27.82     0.933     0.206   0.2484         76     26.28912
 6.40    266.6922  23.1040     95.14685    498.6624 -43.54     0.568     0.338   0.3675         77     32.19747
 4.20    288.7805  19.9798     1690.795    514.9908 -14.61     1.756     1.589   0.0496         78     77.14463
 3.50    317.4287  16.1691     56538.66    905.4695   6.52     1.963     1.845   0.0014         79     73.57825
 3.50    302.2776  17.6954     13861.84    201.7938   5.00     1.793     1.624   0.0051         80     65.28319
 3.60    292.5781  19.8970     1824.766   1327.4825 -87.06     1.402     1.337   0.0326         81     54.72517
 5.47    296.1295  20.5896     964.2258   1413.6121 -41.93     2.195     1.240   0.1121         82     99.52901
 5.55    291.9290  20.9568     687.5172   1475.8376  39.84     1.237     1.093   0.1125         83     71.19128
 3.50    350.0038  14.3939     290038.9   1345.8704 -19.86     2.086     2.025   0.0003         84     79.59428
 7.27    291.1805  22.0918     241.7073    248.8008 -43.98     0.774     0.562   0.2362         85     52.57825
 3.50    350.2067  14.3508     301774.8    890.8081  -6.41     2.179     2.020   0.0003         86     80.79125
 4.52    301.0902  21.0374     638.3452    563.6510  -1.22     1.452     1.072   0.1044         87     61.34129
 3.50    320.8659  18.1073     9485.509    697.3223   8.30     1.781     1.588   0.0074         88     64.39494
 7.00    307.6422  21.0132     652.7054     85.1877  78.06     1.381     1.280   0.1697         89     102.0057
 5.00    321.3483  20.8047     790.8848    641.2813 -73.63     2.141     1.350   0.1282         90     93.35827
 6.88    308.6666  22.7074     137.1034    985.3195  45.65     0.571     0.337   0.2550         91     32.19747
 5.26    326.4825  19.7979     1999.146    595.5634 -29.83     1.814     1.652   0.0544         92      100.106
 3.57    345.2463  18.5408     6363.469    867.2098  28.37     1.943     1.597   0.0118         93     69.27792
 3.50    327.5649  21.6426     365.5731   1546.4867 -35.62     1.222     0.869   0.1193         94      40.1573
 8.77    323.3325  22.1444     230.2668    955.6740  45.29     0.574     0.335   0.2025         95     42.92996
 3.50    331.3411  21.4117     452.1748     93.1862   8.23     1.261     0.963   0.1031         96     42.92996
 6.43    333.3611  21.5044     415.1925   1440.4208 -34.47     1.109     0.793   0.1746         97     66.73734
 3.50    330.6610  23.3062     78.97998   1065.7026 -47.15     0.564     0.340   0.2087         98     15.17803
 3.68    354.7003  18.7575     5211.833    431.8577  13.96     1.904     1.842   0.0158         99     75.89017
 7.70    338.0227  22.4811       168.87    806.4822 -57.94     0.798     0.313   0.2818        100     43.81521
 5.33    349.2087  20.6669     897.9579     54.6703   4.47     1.385     1.116   0.0880        101     72.79129
 3.50    366.9506  18.0830     9700.637    761.0951  -6.58     1.772     1.586   0.0073        102     65.28319
 3.50    359.5818  19.9249      1778.39   1500.3344 -71.04     1.473     1.391   0.0336        103     55.07486
 5.80    347.7420  22.3751     186.1956     41.9935  -4.03     0.720     0.674   0.2606        104     44.68292
 3.73    366.3561  19.1435     3652.609    442.8058   4.60     1.602     1.454   0.0185        105     62.27311
 3.50    359.3577  21.4230     447.4893   1034.1500 -21.18     1.323     1.001   0.1074        106     44.25119
 6.41    354.7786  22.4549      173.005   1398.6235  72.11     0.737     0.450   0.2551        107     40.63255
 4.42    358.7258  22.0051     261.8021    532.9302  76.30     1.019     0.746   0.1799        108     43.37484
 3.50    394.2700  16.3505        47839    231.4159  -4.06     1.962     1.804   0.0016        109     72.52707
 6.27    362.2943  21.8839     292.7111   1415.1569 -72.09     0.933     0.670   0.2017        110     54.37324
 6.14    374.6461  21.0233     646.6682    754.2100  44.39     2.046     0.724   0.1365        111      81.2651
 5.37    372.1427  21.4457     438.2311   1084.1969 -23.39     1.314     0.879   0.1566        112     63.19119
 6.26    367.7691  22.5428     159.5457    210.5549  68.93     0.759     0.445   0.2701        113     39.67636
 3.98    371.5146  21.4407     440.2574    992.3721  -4.57     1.245     0.959   0.1194        114     48.39548
 7.55    368.8334  21.6908     349.6959     71.1674  42.45     0.828     0.663   0.1895        115     61.02752
 4.40    374.6644  22.4377     175.7637     87.1614  13.72     1.078     0.409   0.1952        116     31.59559
 7.17    379.0144  21.7369     335.1373    126.0072 -44.75     0.891     0.532   0.1796        117     55.42234
 7.92    380.1916  21.9187     283.4891      1.3709  72.90     0.742     0.451   0.1557        118     40.63255
 3.50    395.5740  18.5469     6327.511   1461.0891  29.89     1.559     1.486   0.0100        119     58.45678
 3.50    397.1368  18.3471     7605.775    354.5716  -6.81     1.748     1.526   0.0090        120     62.88665
 3.61    392.3617  20.0561     1576.045   1088.7413  -2.02     1.436     1.278   0.0365        121     52.94212
 3.50    418.5695  16.4526     43546.66    433.3101   7.46     1.959     1.787   0.0018        122     71.46044
 3.50    414.4074  17.2447     20994.75    837.4326  17.19     1.842     1.679   0.0035        123      67.3102
 7.17    396.1248  20.6594     904.1604    627.1854  61.98     1.977     0.878   0.1248        124     103.8707
 7.23    387.8064  21.9775     268.5321   1195.8057  48.48     0.750     0.561   0.2097        125     51.84285
 3.50    395.1255  21.6205     373.0857    977.5923  76.25     1.235     0.985   0.1237        126     42.48042
 6.22    401.9259  21.2262     536.4603    527.0042  43.86     1.332     0.945   0.1562        127     77.14463
 6.26    409.7713  22.0205     258.0996      1.3831  78.27     1.567     0.375   0.1844        128     43.81521
 4.87    420.2654  20.6134     943.3199    159.2099  48.92     1.807     1.526   0.1016        129     88.28519
 3.72    406.4822  22.8839     116.5297    282.5084  44.57     0.508     0.492   0.2000        130     21.46498
 3.50    459.8504  15.2152     136117.4    807.5850   4.53     2.069     1.899   0.0006        131     76.14271
 3.50    422.7900  19.1492      3633.46    926.3993  15.32     1.637     1.440   0.0175        132     58.45678
 3.50    437.0163  17.5840     15360.99    251.9980  10.22     1.841     1.648   0.0047        133     66.73734
 6.94    420.5904  20.7820     807.6401    135.1587  11.87     1.978     0.991   0.1426        134     106.0654
 3.83    431.5284  20.2991     1259.977   1421.9464  63.69     1.412     1.251   0.0475        135     55.07486
 6.81    418.4487  22.6294     147.3162   1580.4958 -39.12     0.505     0.492   0.2584        136     35.05217
 8.80    418.5029  21.7798     322.1772    774.9987 -31.96     0.801     0.312   0.1618        137     47.99715
 5.29    425.3546  21.6369     367.4962   1178.8044  39.01     1.015     0.913   0.1648        138     55.76765
 5.34    433.0443  21.2962      502.964    151.4437   9.94     1.320     0.996   0.1460        139     67.59481
 7.10    425.5018  22.3330      193.552    299.9872   1.75     0.780     0.500   0.2738        140     48.79055
 8.64    423.0000  22.3029     198.9874   1063.9739   0.00     0.846     0.289   0.2598        141      47.5955
 4.79    466.5239  18.3123     7853.761    850.5317  22.22     7.483     1.917   0.0275        142     198.6719
 3.50    449.5338  18.8448     4809.342     21.2809   8.03     1.697     1.494   0.0139        143     61.34129
 8.48    430.3995  21.8769     294.6029    720.1899  19.42     0.757     0.446   0.1978        144     53.66245
 3.83    438.8527  21.2547      522.545    305.9849   1.90     1.359     0.978   0.1006        145     48.39548
 5.22    431.7938  22.7843     127.7274    405.9717  -1.01     0.703     0.404   0.2527        146     29.71692
 5.11    444.4103  20.6995     871.3309    122.2891  -4.61     1.510     1.262   0.0962        147     77.14463
 3.50    446.2090  20.8955     727.4508    884.0020   0.27     1.746     1.188   0.0822        148     55.07486
 3.50    457.0356  18.7159     5415.762     34.5201  -4.32     1.689     1.526   0.0125        149     62.58063
 6.16    442.9377  21.9588     273.1968    655.0332 -82.53     0.791     0.785   0.2046        150     51.47121
 8.01    442.2404  22.0250     257.0295    174.9936   0.30     0.691     0.427   0.2045        151     48.39548
 5.22    451.2191  21.7336     336.1641   1533.1263  78.27     1.155     0.715   0.1663        152     51.47121
 7.12    452.1957  22.4894       167.58   1224.2380  71.61     0.870     0.343   0.2782        153     42.92996
 4.27    462.6931  19.9746     1698.865    468.6153  11.59     1.524     1.259   0.0414        154     64.69238
 3.50    459.7192  21.1758     561.9293   1096.2539  13.04     1.317     1.075   0.0888        155     45.95378
 5.09    460.2853  21.3367     484.5128    724.7584 -40.63     1.301     0.898   0.1354        156      60.3951
 3.50    470.8533  19.7271     2133.762    734.9095  28.83     1.505     1.270   0.0269        157     52.94212
 4.16    470.3935  20.0752     1548.491    254.2337   8.56     1.561     1.282   0.0450        158     64.09612
 3.50    476.6703  19.4578     2734.422    923.0995  19.37     1.543     1.358   0.0223        159     56.11084
 3.50    470.0435  22.4280     177.3383   1132.7686  69.41     1.272     0.474   0.1820        160     29.71692
 4.82    476.7152  20.5774     975.0861   1276.8671 -18.70     1.364     1.171   0.0750        161      67.3102
 5.32    474.4258  22.0510     250.9514   1168.8453  48.21     1.064     0.731   0.2244        162     51.84285
 4.70    487.9083  21.0483     631.9685    839.7307 -83.34     2.284     0.863   0.1242        163     72.26189
 4.28    531.8464  17.2631      20643.1    518.7302  14.63     4.283     3.686   0.0098        164     187.1273
 4.33    494.4384  19.6139     2368.292   1186.7635 -29.96     2.990     2.116   0.0547        165     119.3512
 4.18    482.6162  20.3828     1166.486   1070.7542  25.27     1.421     1.210   0.0556        166     59.75597
 6.34    479.6473  21.7125     342.7653   1309.4797  56.30     1.070     0.795   0.2040        167     64.39494
 5.21    495.2841  19.5580     2493.466     83.0719  35.55     2.303     1.986   0.0534        168      122.526
 5.69    477.8947  22.0590     249.1158    682.3663  20.87     0.918     0.682   0.2161        169     49.57125
 3.50    510.9912  17.9143     11331.55   1302.3654  16.68     1.745     1.609   0.0062        170     64.39494
 3.50    503.3101  20.5168     1031.012    763.0489  -6.47     1.836     1.597   0.0694        171      65.8687
 4.00    513.9519  19.3054     3146.571   1461.3184  23.85     4.149     1.477   0.0374        172     108.3928
 3.74    500.8243  21.1816     558.9391    863.8738 -19.89     1.129     1.052   0.0876        173     45.11052
 6.27    496.9661  21.6680     357.0978    366.1871   1.56     0.910     0.761   0.1737        174     57.12804
 4.36    500.0148  21.7768     323.0616   1310.3738  -2.47     1.021     0.787   0.1443        175     42.92996
 3.80    511.7829  20.3413     1211.947   1310.3311 -48.92     1.424     1.294   0.0454        176     50.70907
 3.87    508.7841  21.1010     601.9784    165.1438   0.63     1.752     1.031   0.1025        177       56.791
 4.79    512.3732  21.0301     642.6211   1179.1204  54.88     1.215     1.155   0.1058        178     62.58063
 6.31    517.8915  21.1150     594.2747    641.8876 -54.90     1.187     1.090   0.1441        179     78.86737
 4.63    516.7952  22.1619     226.5807   1519.0157  88.09     0.901     0.737   0.2014        180     42.02607
 5.87    519.2685  22.2302     212.7793    853.4379   9.33     1.396     0.386   0.2429        181      47.5955
 3.50    586.4362  14.3123     312666.3   1315.9449 -12.81     2.094     2.009   0.0003        182     79.11041
 3.50    538.8229  20.0225     1625.539    999.9120 -15.84     1.491     1.346   0.0366        183     54.72517
 5.52    534.8416  21.6439     365.1285    404.8532  28.92     1.429     0.786   0.1906        184     64.09612
 3.50    630.0933  13.6863     556541.6    483.1907  -5.65     2.297     2.113   0.0002        185     84.28024
 3.50    557.6415  19.6626     2264.473   1041.6580   7.73     1.527     1.367   0.0266        186     55.42234
 3.50    571.1049  18.4377     6997.161   1242.8595  24.23     1.663     1.604   0.0097        187     62.58063
 3.57    554.2460  22.4389     175.5698    778.5010 -20.14     1.127     0.530   0.1954        188     31.59559
 3.88    569.9079  20.0491     1586.221   1447.7970   7.26     2.286     1.693   0.0572        189     83.59409
 4.90    570.4611  19.9779      1693.64     46.1277  46.37     1.991     1.464   0.0592        190     92.32437
 3.98    595.4496  18.6613     5695.014    782.8542 -88.99     3.404     3.059   0.0268        191     140.7553
 3.50    581.1600  18.1393     9210.279    319.1685   3.62     1.815     1.598   0.0078        192      65.8687
 5.23    563.6876  21.5559     395.9669    139.3934 -29.93     1.125     0.937   0.1603        193     58.45678
 3.50    579.7925  18.1204     9372.486    144.8776  -2.06     1.801     1.587   0.0076        194      65.5766
 6.17    561.9982  22.3013     199.2821    905.5062 -88.22     0.805     0.500   0.2339        195     42.92996
 5.28    573.3960  20.4038     1144.188   1337.0359 -72.01     1.293     1.198   0.0691        196     72.79129
 7.42    566.6772  22.6785     140.7997    632.3124  45.54     0.563     0.340   0.2704        197     35.05217
 6.48    574.5244  21.2909      505.384   1001.9897  -4.52     1.143     0.954   0.1598        198     74.35687
 3.87    583.5945  20.9662     681.5781     75.3989 -20.37     1.480     1.073   0.0838        199     52.57825
 4.90    583.5082  22.5136     163.8925   1173.0760   2.20     0.785     0.499   0.2133        200     32.19747
 5.25    586.8328  22.6771     140.9822   1138.7960  41.93     0.744     0.568   0.2903        201     37.69127
 3.95   1000.4837  19.5601      2488.65    542.3907  -6.27     1.519     1.387   0.0270        202     61.96406
 3.81   1596.3757  20.8392     766.1521    654.7425 -72.28     1.530     1.432   0.0838        203     59.10995
 7.01   1599.6355  22.2618     206.6641     18.7726  16.89     0.741     0.450   0.1899        204     36.13094
 3.50   1589.9609  22.2149     215.7869    566.4948  30.36     1.001     0.662   0.1528        205     30.35607
 3.59   1583.5129  20.2937     1266.233   1108.5558  44.94     1.395     1.200   0.0448        206     52.21185
 7.13   1580.2595  21.1059     599.2672   1413.9773  72.52     1.318     0.830   0.1494        207     82.43782
 3.50   1540.8383  19.2749      3236.33    134.7687 -24.90     1.476     1.426   0.0187        208     55.76765
 6.81   1531.9071  21.2973      502.453    415.2019 -71.89     1.226     0.822   0.1613        209     74.61461
 6.86   1513.5629  20.8393     766.0818   1546.4598  43.28     1.532     0.988   0.1321        210      93.1524
 3.50   1513.4045  21.5712     390.4161    483.3916 -42.60     1.013     0.938   0.1005        211     36.13094
 5.28    887.4893  20.6655     899.1138    326.1106   4.89     2.144     1.323   0.1190        212     98.55987
 3.50    878.7048  15.4592     108720.4   1592.5017  12.31     1.922     1.850   0.0007        213     73.31686
 3.50    884.1630  20.8130     784.8691   1500.0233  35.27     1.253     1.106   0.0618        214     44.68292
 6.22    884.0157  21.2262     536.4387    338.9892  44.71     1.526     0.866   0.1602        215     79.11041
 5.11    876.3629  20.4881     1058.673   1176.9954   2.36     1.753     1.402   0.0894        216     87.19116
 4.94    876.4781  20.7561     827.1338    961.1818  26.37     1.464     1.172   0.0931        217      70.9211
 3.50    875.3210  22.2503     208.8737    541.3325  83.54     0.974     0.648   0.1511        218     29.06372
 4.19    867.9683  19.5338     2549.647   1103.5979 -33.50     1.832     1.588   0.0329        219     77.14463
 5.50    866.7964  20.3189     1237.232    939.9140  32.84     1.845     1.503   0.0882        220     100.4888
 3.50    857.9001  14.4717     269975.8   1224.4624  -3.56     2.067     1.955   0.0003        221     77.14463
 4.60    868.0561  21.9983     263.4456    643.0482  32.73     0.778     0.775   0.1595        222     38.69654
 8.09    865.2985  22.6582     143.4542    454.6768  43.61     0.557     0.343   0.2967        223     39.18951
 6.28    863.4764  22.7545      131.281   1479.5310 -45.31     0.517     0.480   0.2900        224     35.05217
 3.50    858.1290  20.8206     779.4213   1157.3041   7.22     1.285     1.122   0.0640        225     45.95378
 5.93    858.5292  22.8124     124.4666   1554.4988 -38.89     0.502     0.498   0.3058        226     35.05217
 5.78    857.0644  20.7785     810.2262   1339.4663  19.39     1.303     1.187   0.1041        227     77.64075
 5.47    884.6011  20.6998     871.1052   1304.9567  73.17     2.153     1.112   0.1151        228     92.32437
 6.86    854.3339  22.7470     132.1941    544.6743  45.37     0.574     0.335   0.2645        229     32.19747
 5.03    843.1203  20.9807     672.5562   1206.3131  63.91     1.370     1.279   0.1167        230     72.26189
 3.50    842.0743  20.6808     886.5049   1106.2837  36.79     1.457     1.144   0.0607        231     49.57125
 5.73    843.2930  20.8084     788.1979   1063.6129  -4.79     1.372     1.071   0.1053        232     76.39442
 4.70    836.3198  19.9487     1739.893   1246.9686 -32.77     1.715     1.469   0.0507        233      81.2651
 8.69    837.3306  22.2193     214.9301    991.6487  44.19     0.584     0.329   0.2123        234     42.02607
 4.06    835.5950  20.2183     1357.311    298.5144   8.22     1.466     1.264   0.0486        235     60.71213
 7.42    835.2322  22.0803     244.2766   1520.6128 -72.53     0.734     0.456   0.2080        236     46.78184
 4.18    834.7298  22.0149     259.4535    818.8601  45.52     0.941     0.828   0.1640        237     39.18951
 3.50    833.5014  23.2768     81.15076    515.4869 -45.68     0.504     0.496   0.2873        238     21.46498
 3.50    821.7526  18.5599     6252.268    654.2111   8.57     1.659     1.550   0.0107        239     61.65346
 7.28    820.3486  22.7473     132.1549    331.3069 -46.92     0.572     0.336   0.2789        240     33.93911
 6.72    817.9912  21.7131     342.5817   1398.5271  73.64     1.458     0.528   0.2022        241      63.7959
 5.52    816.1639  22.6320     146.9565    433.5970 -70.57     0.738     0.450   0.2590        242     35.05217
 6.11    815.0000  22.5526     158.1101    877.0160   0.00     1.438     0.289   0.2918        243     42.48042
 3.50    801.5432  18.6254     5886.219   1378.7039  37.58     1.588     1.536   0.0110        244     59.43384
 3.50    799.9274  19.4635     2720.191     40.9899 -12.74     1.668     1.468   0.0240        245     60.07639
 3.50    797.2754  17.4795     16912.84    695.5123 -89.44     2.383     1.755   0.0050        246     78.37903
 5.72    784.6148  22.6710     141.7814   1349.1840 -17.62     0.751     0.451   0.2848        247     37.17844
 5.84    772.6189  18.9953     4186.599   1427.4971 -87.03     3.253     2.162   0.0443        248     170.5982
 3.80    765.6317  20.3067     1251.124    391.7878 -21.06     1.504     1.272   0.0502        249     57.79623
 5.59    766.9703  21.9734     269.5422    139.6528 -31.23     1.079     0.875   0.2433        250      60.3951
 7.17    762.9985  22.6053     150.6123    567.4836  58.69     0.822     0.304   0.2930        251     40.63255
 5.93    753.3007  23.0953     95.91479   1019.6373  42.26     0.575     0.333   0.3215        252      28.3955
 6.56    750.3806  21.9233     282.2791   1080.2655 -67.52     0.984     0.593   0.2105        253     54.72517
 8.53    751.3360  22.2646     206.1453    195.3360 -45.00     0.580     0.332   0.2116        254      40.1573
 7.05    746.6947  22.8668     118.3755   1442.6703 -43.73     0.563     0.340   0.3008        255      32.7883
 4.00    741.6133  20.1046     1507.181    556.1754   4.94     1.459     1.346   0.0437        256     60.71213
 3.50    723.0963  14.0923     382884.7    404.7235 -22.63     2.310     2.082   0.0002        257     84.96084
 3.90    736.6849  21.3243     490.0837   1158.1339  26.95     1.187     1.087   0.1081        258     48.79055
 3.50    734.6859  20.9933     664.7904    649.7816  -8.06     1.495     1.094   0.0803        259     49.18245
 3.50    725.3584  16.0171     65035.89    848.3856   7.55     1.983     1.823   0.0012        260     73.31686
 3.50    726.9903  22.6592      143.319   1544.2115 -33.44     0.807     0.495   0.1878        261     24.78562
 3.50    725.8890  20.5456     1004.088   1178.3372  29.29     1.367     1.174   0.0532        262     49.18245
 6.17    720.0422  20.9871     668.6008   1394.8793  57.46     1.200     1.109   0.1277        263     78.62358
 3.53    714.5092  20.2784     1284.265    808.4193   2.27     1.352     1.298   0.0438        264     51.84285
 3.50    707.5997  20.3372     1216.476   1163.7511   7.78     1.353     1.264   0.0446        265     49.95702
 7.45    706.8065  22.5302     161.4071    538.3743 -71.63     0.764     0.442   0.3202        266      47.5955
 4.36    702.6929  19.9226     1782.188   1338.9893 -51.05     1.793     1.592   0.0495        267      81.2651
 3.50    701.4094  19.6876     2212.952    952.4020  -7.15     1.483     1.423   0.0274        268     55.76765
 6.09    697.8321  20.9241     708.5626    581.9954   3.96     2.000     0.816   0.1309        269     85.41156
 4.30    689.6995  21.0277      644.048   1213.8993  59.05     1.500     1.169   0.0961        270     56.98472
 3.92    685.0089  21.5593     394.7142   1213.4946  80.71     1.064     0.947   0.1168        271     42.43459
 6.80    691.0162  21.5059     414.5968    316.3271  16.84     1.017     0.739   0.1702        272     64.98846
 6.50    681.7518  19.1394     3666.261    471.9468  89.44     2.914     2.598   0.0580        273     195.9476
 5.71    686.7047  21.8121     312.7086    130.6565 -16.89     0.891     0.827   0.1851        274      53.3035
 3.77    684.3580  19.8175     1963.334    644.2499  10.75     1.536     1.386   0.0332        275     60.07639
 5.46    680.0992  19.7833     2026.228    543.6492 -68.96     2.117     1.628   0.0599        276     111.7073
 6.88    667.7279  21.4374     441.6158   1221.2678 -61.48     1.270     0.696   0.1757        277     71.46044
 5.53    665.6055  22.7598     130.6404   1180.2338 -18.03     0.732     0.455   0.2959        278     35.59564
 3.50    653.3447  21.1859     556.7181    870.7210  22.09     1.207     1.122   0.0855        279     43.81521
 3.50    646.7708  16.0290     64328.79   1464.3446  19.48     1.920     1.826   0.0012        280     72.52707
 3.50   1549.3451  21.8347     306.2875   1221.7224 -44.74     0.978     0.824   0.1203        281     33.93911
 3.50    638.6250  18.0639     9873.224    536.7704   4.55     1.771     1.577   0.0070        282      63.7959
 5.12    640.4909  21.7827     321.3087    276.5275  44.08     1.085     0.738   0.1752        283     51.84285
 3.50    629.2963  20.9671     681.0295    806.0956  -0.34     1.437     1.111   0.0772        284     48.39548
 5.83    644.5950  21.5285     406.0747    652.8699  16.69     1.258     0.839   0.1762        285      65.8687
 3.50    621.8457  20.6417      919.041   1581.4034  59.20     1.325     1.248   0.0581        286     49.18245
 5.43    616.8323  21.6926     349.1179   1151.2251  59.39     1.134     0.928   0.1908        287     61.34129
 3.50    608.6844  22.1195     235.6237    945.8057  72.44     1.080     0.659   0.1511        288      32.7883
 3.50    604.2041  20.5947     959.6957    586.3810   3.51     1.391     1.151   0.0552        289     48.79055
 3.73   1565.2236  22.2994     199.6398   1256.5342  82.53     0.973     0.487   0.1581        290     29.06372
 3.50   1513.7866  18.3842     7350.609    392.3686   0.31     1.584     1.557   0.0090        291     60.71213
 5.46   1593.5349  21.2332     532.9979    373.5282  89.56     1.347     0.980   0.1395        292     68.44154
 3.50   1565.6357  19.8009     1993.592     21.6714  -3.37     1.512     1.388   0.0302        293     55.42234
 5.77   1584.2544  22.4594     172.2878   1069.4106  70.77     0.716     0.457   0.2344        294     37.17844
 6.89   1591.9668  21.8405     304.6461   1384.2509  33.49     1.155     0.450   0.1951        295     54.72517
 3.50   1562.6835  16.1685     56574.29    303.8709   2.08     1.871     1.794   0.0013        296     70.10433
 7.27   1573.1724  22.0065     261.4456   1490.8132 -46.60     0.739     0.564   0.2107        297     50.71977
 4.22   1544.6085  20.6854     882.7177    863.2323  50.22     1.529     1.237   0.0777        298     63.19119
 3.50   1541.4359  19.6936     2200.783    654.3959  -5.13     1.480     1.284   0.0256        299     51.84285
 3.50   1551.3933  17.1347     23233.48    682.0305 -26.37     4.365     3.775   0.0073        300     155.7752
 3.50   1559.7860  20.5810     971.8376    860.9190 -58.52     1.257     1.196   0.0532        301      47.5955
 3.68   1569.6466  20.1428     1455.035     92.1997 -18.94     1.370     1.251   0.0390        302     52.21185
 3.50   1564.6084  20.4178     1129.462    784.3132 -70.10     1.653     1.285   0.0533        303     55.42234
 3.50   1556.9069  16.1756     56205.51    487.3637   8.53     1.892     1.819   0.0014        304     71.19128
 6.45   1550.0000  22.7652     129.9897   1512.9548   0.00     0.861     0.289   0.2788        305     33.36867
 6.08   1561.0076  22.5756     154.7966   1565.7761  89.69     0.698     0.417   0.2644        306     37.69127
 6.15   1537.5518  22.7228     135.1646    263.5334 -39.05     0.502     0.494   0.2816        307     35.05217
 5.49    910.8828  20.9746     676.3068   1001.2759 -10.81     1.340     1.043   0.1139        308      70.9211
 5.27   1534.7400  21.6394     366.6438   1428.1411 -40.58     1.337     0.990   0.1994        309      67.3102
 3.51    899.4885  18.5851     6109.096    302.6584   6.87     1.667     1.481   0.0107        310      60.3951
 7.33   1517.4172  22.2390     211.0594   1100.7787 -20.03     0.771     0.443   0.2449        311      47.5955
 3.50   1517.9752  22.0098     260.6515     84.8643  22.98     1.143     0.681   0.1390        312     33.36867
 7.19   1521.9784  22.3630     188.2728     14.4723  57.85     0.794     0.314   0.2344        313     40.63255
 3.50   1496.9832  22.0119     260.1565    844.1691  -9.33     1.119     0.722   0.1463        314     35.05217
 6.62    892.6292  20.9922     665.4722   1425.7739  45.46     1.291     1.012   0.1353        315     82.90226
 4.75    878.4860  18.3531     7563.877    224.4313  88.70     7.310     2.055   0.0291        316     202.8791
 3.50   1506.2036  16.8391     30505.18    269.0006 -12.53     1.790     1.714   0.0024        317      67.3102
 3.50   1486.9354  22.2669     205.6942     77.8319 -49.41     0.832     0.657   0.1463        318     27.71117
 5.11    894.9561  20.0666     1560.782    538.3524  14.08     1.912     1.726   0.0708        319     101.8173
 7.14    896.2786  21.9577     273.4825    987.9648 -16.81     0.740     0.677   0.2255        320       56.791
 4.11    907.4599  22.6675     142.2319   1079.5054 -33.66     0.501     0.497   0.1639        321     21.46498
 6.50    902.6793  21.1287     586.8536   1314.9668  85.36     1.545     0.768   0.1437        322     77.64075
 3.50   1503.1562  20.8981     725.6842    723.1560  78.95     1.263     1.171   0.0694        323     46.36966
 3.50    911.4485  20.7961     797.1838    838.3603  39.81     1.285     1.159   0.0632        324     46.36966
 3.50    881.1320  14.0521     397331.3    183.7184 -17.80     3.531     3.210   0.0004        325     129.2363
 7.17   1483.7509  21.9412     277.6658    572.7041  85.96     1.213     0.449   0.2247        326      57.4631
 4.07    926.9052  20.4956     1051.395   1322.4321   9.87     1.278     1.211   0.0569        327     55.07486
 7.37   1473.2372  21.0724     618.0906    998.7042 -15.28     1.264     0.946   0.1540        328     87.63042
 6.31    903.6495  23.0968     95.77979    734.6927 -46.96     0.573     0.335   0.3582        329     31.59559
 8.09   1480.4886  21.9727     269.7198    575.5043  44.56     0.504     0.496   0.1799        330     44.68292
 4.62   1437.3823  21.6447     364.8571   1270.8408  86.39     0.991     0.847   0.1380        331     46.36966
 7.71   1465.7528  22.4000     181.9741   1128.9950  -0.23     0.700     0.431   0.2816        332     47.19042
 3.50    928.3278  17.6623     14291.07   1178.3445   9.19     1.687     1.619   0.0048        333      63.7959
 7.04    924.4929  22.5632     156.5811     45.9930  33.21     0.767     0.324   0.2649        334     38.19721
 3.50   1405.3381  21.4178     449.6519    329.3842  24.80     1.120     0.909   0.0935        335     38.69654
 4.34    937.9125  19.7292     2129.677   1067.0264  32.29     1.464     1.419   0.0352        336     69.00026
 6.82    940.0000  22.9310     111.5874    726.0226   0.00     0.857     0.289   0.3464        337     35.59564
 6.78    937.3108  21.0136     652.4685    516.1055  32.96     1.377     0.828   0.1341        338     80.55328
 4.86    949.5503  20.9400     698.2139    654.2190  63.57     1.549     1.193   0.1128        339     72.52707
 5.90   1437.4187  22.3548     189.7124    647.3112  -8.80     0.982     0.476   0.2582        340     45.11052
 5.30    946.8583  21.4389     440.9816    445.0434   1.90     1.166     0.741   0.1356        341     55.07486
 8.30    946.2512  22.0914     241.7876    132.0015  -0.08     0.678     0.434   0.2209        342     49.18245
 7.20   1448.6608  23.0529     99.72852     87.6717 -45.47     0.578     0.333   0.3696        343     33.93911
 3.50   1432.9703  15.2018     137808.5   1090.2324   0.31     1.991     1.908   0.0006        344     74.61461
 6.58    948.4963  22.5411     159.7971    267.4831 -45.71     0.505     0.494   0.2382        345     35.05217
 3.50   1392.4930  15.8433     76325.15    114.1711   2.53     1.892     1.837   0.0010        346     70.64989
 6.94   1452.4630  22.7811     128.1001    391.5019  37.38     0.502     0.497   0.2972        347     35.05217
 3.50   1434.2791  19.2073     3444.249    224.4329  -2.47     1.542     1.494   0.0181        348      57.4631
 4.59    979.5256  20.6159     941.1045    797.9230 -82.58     1.382     1.193   0.0747        349     64.69238
 5.04   1434.9100  22.1937     220.0422   1347.1246 -12.86     0.957     0.687   0.2226        350     45.11052
 7.54    952.0077  22.2632     206.4093     61.2406 -89.66     0.701     0.427   0.2351        351     44.68292
 3.50   1438.6829  19.5882     2425.138    618.8336  -2.78     1.429     1.335   0.0235        352     52.57825
 5.30    964.0222  21.6802     353.1288    416.2845   0.38     1.147     0.762   0.1661        353     54.01902
 3.50   1387.1427  18.4345     7017.543   1428.2762  -6.08     1.609     1.533   0.0094        354     60.71213
 4.11   1399.2919  20.6255     932.8481   1031.0402  26.72     1.473     1.292   0.0721        355     61.96406
 4.69   1431.0420  21.3929     460.0679    340.6069  25.83     1.721     0.833   0.1433        356     60.71213
 3.64   1413.7847  20.1344     1466.331   1386.3597 -51.81     1.365     1.297   0.0397        357     53.66245
 6.33    953.5342  22.8363     121.7543   1029.5052 -41.19     0.504     0.495   0.3127        358     35.05217
 3.50   1417.9104  17.4531     17328.33   1126.1416 -66.45     1.859     1.730   0.0043        359     68.72147
 4.05   1390.9829  19.9792     1691.638   1038.5302 -62.12     1.391     1.323   0.0386        360     60.07639
 5.14    980.2189  22.2143     215.9186   1487.5507  -0.78     0.984     0.702   0.2332        361     46.36966
 6.66    977.4117  21.2675     516.4369    452.0928  74.59     1.097     0.955   0.1580        362     75.12743
 3.50   1407.1616  19.6774     2233.755    307.9359 -72.44     1.339     1.331   0.0250        363     51.47121
 3.50   1410.0396  21.2400     529.6731    349.5081  36.08     1.369     1.027   0.0916        364     44.68292
 7.61   1402.6686  22.8762     117.3583   1363.3004  46.64     0.562     0.341   0.3392        365     36.65843
 5.10   1358.5911  17.7182     13574.53   1135.1514  74.93     5.697     4.625   0.0153        366     191.4263
 4.34   1064.1340  21.7742     323.8311   1596.5851  15.48     0.992     0.861   0.1440        367     42.92996
 3.50   1364.9259  14.1950     348347.6   1159.4381 -50.80     2.974     2.847   0.0003        368     112.0505
 3.56   1389.1337  19.6110     2374.614    713.0481  12.66     1.496     1.366   0.0257        369     56.11084
 3.50   1062.4746  21.4386     441.1189      6.5746  36.74     1.130     0.990   0.1035        370     42.02607
 7.49   1065.2341  21.9226      282.452    569.7603 -44.87     0.925     0.450   0.2049        371      53.3035
 5.43   1063.6809  23.1360     92.38416   1475.6754 -44.73     0.567     0.339   0.3090        372     26.28912
 4.01   1387.4335  21.4932     419.4818    806.2859  -3.11     1.186     0.965   0.1243        373     47.99715
 6.08   1387.3101  23.3228      77.7793   1584.3380 -43.66     0.569     0.338   0.4058        374     29.06372
 3.50   1371.2097  18.2760      8120.58   1018.7941 -24.36     1.637     1.588   0.0082        375     61.65346
 4.25   1378.3931  22.0546     250.1167    318.5918 -26.82     1.111     0.728   0.1805        376     41.56675
 3.50   1072.3970  21.2517     523.9976      6.6476 -12.20     1.266     0.977   0.0890        377     42.92996
 4.90   1082.8191  21.4354     442.4166     42.7823 -41.51     1.202     1.042   0.1483        378      60.3951
 6.14   1351.3342  23.0498     100.0215    474.6741  45.37     0.575     0.335   0.3227        379     29.71692
 4.40   1078.0201  21.4465     437.9169    329.8063 -32.29     1.261     1.068   0.1366        380     55.07486
 4.79   1079.6680  22.3784     185.6288     52.1566  68.66     0.956     0.674   0.2485        381     42.48042
 6.59   1369.2180  21.6942     348.5986   1215.4215  -1.68     0.970     0.718   0.1872        382     60.07639
 4.94   1292.2568  20.4442     1102.377    742.1796  18.61     1.374     1.125   0.0657        383     66.73734
 3.50   1088.1907  19.3939     2900.312    642.3666   1.56     1.505     1.397   0.0208        384     55.42234
 5.29   1070.7594  19.6253     2343.644   1218.9595 -76.78     2.060     1.787   0.0519        385     112.0505
 3.85   1291.8519  20.8770     739.9753    412.4313 -16.39     1.250     1.051   0.0710        386     48.39548
 5.49   1104.4949  20.6691     896.0669    678.1635  30.28     1.887     1.343   0.1163        387     95.99431
 3.50   1103.3607  18.0407     10086.41    751.7085   6.21     1.691     1.583   0.0068        388     63.49427
 5.32   1305.3979  22.7761     128.6989    573.7831 -18.80     0.752     0.449   0.2816        389     33.36867
 4.68   1089.7869  20.7890     802.3821    468.1808 -66.59     2.061     1.122   0.1054        390     77.88761
 5.81   1328.9382  20.4666     1079.869   1139.3118 -67.13     1.698     1.369   0.0975        391      96.9891
 7.10   1350.9673  21.3782     466.3486    151.0393 -70.78     1.195     0.833   0.1842        392     79.11041
 3.50   1106.4558  18.4976     6621.497    427.7849   3.26     1.675     1.619   0.0105        393      63.7959
 7.58   1345.0083  21.8792      293.972    604.6937  89.70     0.741     0.672   0.2172        394     58.78427
 4.56   1329.3369  21.1444     578.4263    386.4966  -1.75     1.274     1.056   0.1104        395     58.78427
 3.50   1318.9108  16.9128     28502.77    659.7620   1.26     1.819     1.699   0.0026        396     67.59481
 3.77   1306.3063  19.5087     2609.223    669.5140  24.42     1.521     1.401   0.0251        397      60.3951
 4.03   1306.4060  19.4851     2666.516   1035.9504 -32.08     2.526     1.758   0.0381        398     93.56367
 3.50   1331.7883  20.8199     779.8809    107.2309 -21.94     1.255     1.143   0.0640        399     45.95378
 6.74   1311.6663  22.9162     113.1135    989.6658 -44.98     0.578     0.333   0.3091        400     32.19747
 6.38   1144.0275  22.2029     218.1923    769.6744  83.76     0.742     0.673   0.2428        401     48.79055
 3.50   1297.2642  14.9033     181419.9    724.6708  -6.50     2.052     1.940   0.0005        402     76.89538
 3.50   1181.1243  21.9399     278.0045    176.0954  10.75     1.127     0.718   0.1348        403     34.50013
 3.50   1328.7194  19.3017      3157.29    655.6528 -29.23     1.544     1.453   0.0184        404     53.57551
 3.50   1303.4418  21.0335     640.6233    892.7018 -46.56     1.174     1.043   0.0735        405     43.37484
 5.01   1318.1453  21.2480     525.7758    263.6410  -9.28     1.203     1.096   0.1311        406     63.49427
 3.50   1137.6332  16.8716     29604.35    147.8255  13.31     1.819     1.766   0.0025        407     69.00026
 5.47   1129.3582  21.0390     637.3663    219.3282 -16.50     1.454     0.911   0.1176        408     69.00026
 6.32   1289.5433  22.0105     260.4866    546.0164  86.65     0.823     0.683   0.2222        409      53.3035
 5.77   1139.7195  21.3859     463.0808    661.6729 -20.50     1.414     0.966   0.1744        410     74.35687
 3.50   1290.1145  18.4869     6687.312    761.9095 -18.34     2.084     1.576   0.0114        411     70.10433
 3.50   1264.1892  19.2967     3171.897    807.7321  14.98     1.563     1.442   0.0196        412     57.12804
 3.50   1271.5988  17.8038      12545.4    609.8644 -57.73     4.095     2.365   0.0104        413     119.9929
 3.50   1298.4053  21.9639     271.9105     53.7935 -52.26     1.001     0.781   0.1356        414     33.93911
 3.50   1220.3157  13.5304     642435.4    995.0497 -29.08     5.869     5.350   0.0004        415     215.5423
 3.59   1228.4076  20.9353     701.2474    598.8438   8.94     1.455     1.380   0.0880        416       56.791
 3.50   1260.9320  22.0503     251.1282    854.8088  -1.83     0.890     0.736   0.1366        417     31.59559
 3.50   1217.5336  18.1647     8997.296   1194.8434  18.58     1.817     1.643   0.0081        418     67.02438
 5.01   1276.6355  23.2557     82.73901    343.2201 -17.22     0.748     0.447   0.4067        419     30.98203
 3.50   1150.5725  14.3569     300070.7    693.5473 -16.05     3.230     2.963   0.0004        420     118.0574
 3.50   1276.5774  19.0991     3804.976   1331.2343  36.48     1.475     1.444   0.0161        421     56.45195
 3.50   1200.9242  20.1510     1444.065    338.6378  59.60     1.383     1.234   0.0379        422     50.33984
 3.50   1272.7793  22.0424     252.9585    697.9058  29.79     1.024     0.657   0.1382        423     32.19747
 4.75   1152.2167  20.6314     927.7263   1353.3368 -87.94     1.476     1.327   0.0849        424     72.52707
 3.50   1235.3568  20.0253     1621.427   1553.2626 -34.23     1.427     1.366   0.0362        425     54.01902
 5.22   1193.8207  19.7950      2004.41    123.7317  67.85     2.017     1.799   0.0595        426     109.8006
 3.50   1241.3962  20.7918     800.3199    672.4705  13.82     1.317     1.025   0.0606        427     44.68292
 3.53   1236.9100  21.5421     401.0116     48.0830  48.65     1.176     1.011   0.1100        428     40.63255
 3.50   1227.2687  21.7041     345.4396   1153.4540  19.49     0.957     0.935   0.1102        429     35.05217
 4.38   1258.3755  20.2518     1316.126    432.3192   1.35     1.902     1.773   0.0734        430     88.93516
 3.50   1233.3051  19.5318     2554.236    304.4727  -0.43     1.472     1.412   0.0239        431     56.11084
 3.86    999.9985  20.4321     1114.708   1555.3717 -36.16     1.322     1.250   0.0530        432     54.37324
 6.26   1261.1990  22.6913     139.1471    215.6046 -69.80     0.754     0.441   0.3097        433     39.67636
 5.99   1209.0464  22.1674     225.4436   1415.6775  64.51     0.873     0.600   0.2273        434     47.19042
 5.52   1210.7572  20.0886       1529.6   1428.9896  71.68     2.258     1.721   0.0847        435     119.3512
 4.67   1202.8684  22.4097      180.359   1217.1223 -42.21     0.764     0.570   0.2044        436     33.93911
 3.50   1213.5566  17.6801     14059.67    512.8241   1.22     1.765     1.622   0.0050        437     65.28319
 3.50   1199.4136  20.4591     1087.305   1442.0104  70.31     1.979     1.370   0.0631        438     63.19119
 3.50   1129.0735  17.5777     15449.65    183.3287   8.60     1.745     1.663   0.0045        439     64.69238
 3.50   1206.4138  20.1080     1502.419    838.6290   8.74     1.419     1.247   0.0367        440     50.71977
 4.57   1201.9446  20.0318      1611.61   1075.5841  25.96     1.823     1.384   0.0535        441     79.35271
 4.54   1179.9291  21.4315     444.0145    549.1391  49.04     1.185     1.070   0.1381        442     56.45195
 3.50   1182.8752  20.2733     1290.266    271.8067 -57.97     1.389     1.260   0.0424        443     50.33984
 3.57   1171.4684  18.4557     6882.325    757.6408 -53.38     3.561     3.199   0.0209        444      132.319
 4.83   1181.5228  21.6795     353.3578    673.3273  10.01     0.961     0.945   0.1559        445     50.71977
 3.60   1150.2494  20.2601     1306.102     99.1641  44.81     1.409     1.284   0.0443        446      53.3035
 6.26   1165.7251  22.2003     218.7089   1599.5543 -82.16     0.967     0.484   0.1946        447     39.18951
 5.28   1132.2048  21.7918     318.6338    606.9894  -0.85     1.220     0.733   0.1889        448     55.42234
 3.50   1163.7928  16.3488     47914.15   1299.6521  -1.91     1.868     1.813   0.0016        449     70.64989
 3.50   1156.9557  18.7111     5439.392    236.1230   5.92     1.645     1.567   0.0123        450     61.65346
 4.58   1160.5538  21.1032      600.804    887.3908  -6.02     1.282     0.952   0.0996        451     55.07486
 3.50   1209.2909  17.6723     14160.46   1278.7617  83.19     5.707     3.335   0.0129        452     168.1043
 6.56   1154.3998  22.4393     175.5015    568.1872  19.14     0.749     0.449   0.2543        453     41.10231
 5.16   1194.3286  22.3066     198.3116   1052.9990  -0.73     0.746     0.659   0.2119        454     38.69654
 3.50   1128.0515  21.1089      597.618    547.0253 -78.94     1.227     1.103   0.0804        455     44.25119
 6.38   1087.0878  21.7868     320.0989    396.3960  50.28     1.026     0.751   0.2070        456     61.02752
 5.41   1130.3535  22.1840     222.0297    359.2154  16.98     0.910     0.640   0.2227        457      45.5341
 6.23   1127.3470  23.3617     75.04285    838.6746  45.90     0.580     0.332   0.4572        458     31.59559
 4.84   1119.3715  19.6386     2315.092    329.6084  57.83     2.332     1.576   0.0478        459     101.8173
 5.68   1109.1113  20.0096     1645.003    479.0043  31.99     2.091     1.776   0.0797        460     120.7902
 5.84   1112.7843  21.1599     570.2297    674.0977  72.95     1.122     1.035   0.1314        461     69.00026
 3.50   1078.8845  16.7919     31858.33    511.9223  -0.09     1.844     1.739   0.0023        462     68.44154
 4.49   1093.8942  20.5381     1010.985   1526.4425  -6.74     1.363     1.188   0.0679        463     63.19119
 3.50   1093.3427  22.0214     257.9039   1136.0365 -30.61     1.045     0.797   0.1499        464     35.59564
 3.50   1093.7670  16.9052     28702.04    778.0053  -5.97     1.837     1.695   0.0026        465     67.87823
 3.50   1080.4218  18.1328      9265.97   1148.0754 -17.12     1.656     1.593   0.0073        466     62.58063
 5.08    985.2458  20.2476     1321.217    453.8517 -42.40     1.643     1.382   0.0687        467     83.59409
 6.42   1084.8627  22.1208     235.3265   1453.5759  12.97     0.859     0.611   0.2305        468     49.95702
 6.13   1063.7783  20.1675     1422.298   1563.4491 -73.99     2.298     1.535   0.0970        469     126.9885
 5.98   1017.6820  23.1061     94.96692    268.3080  45.55     0.559     0.342   0.3324        470     29.06372
 5.34    997.4180  22.5883     152.9899    233.2620  18.58     0.719     0.461   0.2409        471     33.93911
 5.64   1058.7687  20.6587     904.7445    726.8434   5.31     1.364     1.127   0.0920        472     76.64531
 7.26    981.9960  22.8775     117.2208    515.0000  90.00     0.836     0.289   0.3676        473     39.67636
 3.50    983.7862  16.9318      28007.8    558.2753   0.92     1.847     1.685   0.0026        474     67.87823
 3.50   1039.1467  16.5356     40340.74    632.9376  -3.12     1.901     1.752   0.0019        475     69.55448
 3.50   1022.7363  13.9047     455100.2     49.9904 -21.28     2.224     2.065   0.0002        476     82.90226
 3.50   1037.5930  18.2457     8350.639    525.2273   2.99     1.774     1.584   0.0083        477     64.09612
 3.50   1024.3289  17.3759     18605.15   1379.9098  74.47     1.779     1.726   0.0039        478     66.73734
 7.59   1039.7631  22.1257     234.2725    466.5743  71.11     0.734     0.458   0.2280        479     49.18245
 4.50    998.4636  20.7874     803.5704   1273.6456  -0.95     1.279     1.147   0.0812        480     60.07639
 6.53   1037.9006  20.8507     758.1152    121.5779 -51.48     1.781     1.110   0.1440        481     100.4888
 4.11   1029.4198  19.8525     1900.994    302.4403  60.90     2.382     1.804   0.0535        482     93.56367
 7.84   1020.5706  21.5348     403.7262   1270.2164 -28.71     1.209     0.650   0.2041        483     75.89017
 6.85    999.6080  22.5920     152.4725   1488.6985 -48.35     0.586     0.325   0.2293        484     32.19747
 3.50   1013.4269  22.2591     207.1831    452.4649  45.38     0.983     0.585   0.1523        485     29.06372
 3.50   1008.6145  17.5504     15843.41    813.6062  -4.73     1.799     1.618   0.0045        486      65.5766
 3.72   1010.2621  19.6162     2363.224    344.5641   2.15     1.490     1.413   0.0267        487     58.12744
 6.56   1009.6623  22.3070     198.2437    267.5084   0.36     0.907     0.473   0.2585        488     47.19042
