#   1 KRON_RADIUS            Kron apertures in units of A or B                         
#   2 Y_IMAGE                Object position along y                                    [pixel]
#   3 MAG_BEST               Best of MAG_AUTO and MAG_ISOCOR                            [mag]
#   4 FLUX_BEST              Best of FLUX_AUTO and FLUX_ISOCOR                          [count]
#   5 X_IMAGE                Object position along x                                    [pixel]
#   6 THETA_IMAGE            Position angle (CCW/x)                                     [deg]
#   7 A_IMAGE                Profile RMS along major axis                               [pixel]
#   8 B_IMAGE                Profile RMS along minor axis                               [pixel]
#   9 MAGERR_BEST            RMS error for MAG_BEST                                     [mag]
#  10 NUMBER                 Running object number                                     
#  11 FLUXERR_BEST           RMS error for BEST flux                                    [count]
 3.87     54.0606  16.5604     39432.57     63.4906  10.24     5.079     4.642   0.0094          1     340.4495
 3.50     17.6089  18.7896     5059.996    984.8857 -88.11     4.179     1.842   0.0379          2     176.6392
 3.50     18.7909  19.2412     3338.281     91.0583 -77.68     1.665     1.590   0.0338          3     103.8479
 3.50     15.4372  18.1803     8869.425   1445.5699 -58.56     1.765     1.663   0.0134          4     109.7306
 8.71      7.7679  22.7794     128.3027   1469.4524 -68.75     0.745     0.449   0.7649          5     90.37041
 5.20      4.5160  21.9157     284.2662    145.3089  44.41     1.257     0.896   0.3646          6     95.44178
 7.14     10.4944  22.6951     138.6648   1183.4982  44.88     0.503     0.497   0.5316          7     67.87428
 3.50     60.5870  16.4966     41816.36   1078.2454  78.89     2.101     1.994   0.0034          8     129.4312
 7.81     14.3362  23.3916     73.00488    839.6812  45.80     0.572     0.336   0.9383          9     63.07695
 3.71     25.5086  20.9646     682.6213    367.0246 -44.58     1.386     1.224   0.1381         10     86.82507
 3.96     17.9751  22.1609      226.806    384.0876  -6.21     1.065     0.750   0.2940         11      61.3946
 3.50    182.7325  12.9413      1105248   1107.3342 -33.02     5.842     5.048   0.0003         12     345.0318
 7.95     24.5880  22.4983     166.2255    383.1618  87.82     1.000     0.715   0.7938         13     121.5034
 7.77     35.5278  21.2783     511.3225   1110.5074  83.69     1.018     0.640   0.2420         14     113.9436
 6.92     34.3293  21.8120      312.759    326.4466 -55.26     1.064     0.824   0.4098         15     118.0062
 5.72     38.8936  22.9253     112.1707   1521.2977  57.82     1.154     0.680   0.8861         16     91.52167
 5.84     39.8461  22.0799     244.3662   1170.4801  -0.97     0.941     0.732   0.3885         17     87.42595
 5.61     45.8528  22.5883     152.9926    440.1219 -39.18     1.403     1.002   0.8533         18     120.2039
 3.50     43.2799  22.2557     207.8308    915.3459 -44.82     1.174     0.700   0.2929         19     56.04535
 3.50     80.9598  16.5434     40052.93    537.4124 -67.89     2.020     1.918   0.0034         20     125.3212
 6.79     40.5038  23.7430     52.81995   1225.9862 -32.64     0.782     0.319   1.1901         21     57.88338
 6.55     51.1657  23.5158      65.1167    265.9854  36.65     0.939     0.465   1.3329         22     79.91786
 6.43     51.0299  22.6684     142.1147   1435.2108 -33.32     0.788     0.497   0.5417         23     70.89238
 6.80     49.3377  24.2977     31.68896   1233.6754  45.58     0.575     0.334   1.8221         24     53.16928
 3.50     75.9613  20.3260     1229.142    127.6706  65.46     1.365     1.260   0.0723         25     81.85947
 5.75     82.8388  21.1851     557.1382    421.4473 -51.35     1.212     0.808   0.2014         26     103.3425
 5.12     91.5345  20.6023     952.9686    376.7948 -74.03     1.886     1.573   0.1818         27     159.5078
 3.50    122.5929  16.1013     60181.89    788.9210 -57.93     2.107     1.961   0.0023         28     128.6197
 3.64     97.3432  19.8802      1853.26     55.9943  -9.78     1.501     1.385   0.0559         29     95.44178
 6.18     92.9185  21.5463     399.4807    495.8493  75.14     1.341     0.684   0.2891         30     106.3386
 6.08     98.7693  20.5326     1016.148    452.5781 -24.86     1.703     0.981   0.1523         31     142.5213
 4.43     96.5883  24.0220     40.85229   1075.8324  21.36     0.766     0.435   1.2465         32      46.8909
 8.01    114.3489  22.9826     106.4021    270.3333 -45.61     0.584     0.329   0.6687         33     65.51954
 7.06    117.8673  22.2173     215.3162     66.8318  46.85     0.748     0.562   0.4193         34     83.12868
 6.06    118.7044  24.5799     24.43689    990.6282 -41.71     0.576     0.332   2.1329         35     47.99437
 8.28    118.5058  23.0273     102.1141    154.4909  45.33     0.502     0.498   0.7847         36     73.78712
 4.24    235.9001  16.4041     45536.35    403.1562 -56.45     6.429     5.300   0.0107         37     448.7129
 3.50    194.4204  14.5093     260794.8    317.8754 -62.51     2.391     2.159   0.0006         38      143.619
 3.50    163.1395  16.7407     33397.58   1468.1359 -60.49     1.999     1.918   0.0040         39     123.2148
 5.04    132.4922  21.9024     287.7611    418.0420   0.54     0.804     0.500   0.2184         40     57.88338
 3.50    171.1363  18.3663     7472.428    877.1224 -68.32     1.766     1.710   0.0159         41     109.7306
 5.36    147.2958  22.7176     135.8153    353.1507 -30.05     0.879     0.605   0.5669         42     70.89238
 6.86    152.5081  22.8802     116.9241   1279.9960  -1.46     0.803     0.500   0.7112         43     76.57252
 4.82    172.3745  20.0983     1515.934    325.0115 -64.12     1.467     1.346   0.0883         44     123.2148
 3.59    165.8674  21.1567      571.892   1445.5350  -0.27     1.320     1.134   0.1518         45     79.91786
 4.17    167.5935  21.5295     405.7086    104.3067 -28.86     1.173     1.010   0.2157         46     80.57026
 5.09    170.4302  21.4712     428.0671   1368.2188 -47.27     1.080     0.717   0.2060         47     81.21742
 5.71    169.4399  22.8286     122.6249    651.5150 -35.83     0.503     0.493   0.4621         48     52.17538
 4.46    181.2359  21.3536     477.0327    574.8821  23.27     1.275     0.773   0.1834         49     80.57026
 4.36    193.3881  20.7451     835.5608   1350.3933 -35.33     1.357     1.132   0.1269         50     97.61119
 8.45    186.9876  21.2413     529.0277   1354.0366 -74.11     0.796     0.783   0.2476         51     120.6386
 3.72    211.5532  18.9627     4314.558    827.4822  -7.29     3.936     1.949   0.0467         52     185.5995
 3.50    207.5034  20.1466     1449.928    548.9205 -81.30     1.549     1.369   0.0677         53     90.37041
 7.58    196.0324  22.1907     220.6586    267.5382  56.83     0.765     0.324   0.3489         54     70.89238
 4.87    229.8139  19.9027     1815.151    414.8996 -19.48     1.967     1.652   0.0528         55     88.18932
 3.50    211.4506  21.3888     461.8112    684.4574 -82.33     1.680     1.042   0.2028         56     86.22002
 4.07    209.4233  20.5976     957.1405    349.7025  43.13     1.598     1.217   0.1195         57     105.3493
 3.50    204.3587  21.5897     383.8027    250.6058 -42.34     0.981     0.848   0.1663         58     58.78085
 3.50    212.9739  20.1448     1452.439   1305.9009  53.84     1.403     1.346   0.0636         59     84.99697
 4.51    231.0750  19.0526     3971.691    562.2184  -9.41     3.381     2.852   0.0693         60     253.5497
 0.00    204.4280  99.0000    -71.62964   1498.4841 -36.27     0.505     0.489  99.0000         61     35.44619
 7.06    205.7527  23.8447     48.09717    937.2287 -19.28     0.855     0.346   1.5670         62     69.39974
 3.57    224.5217  20.0141     1638.117   1225.8657 -53.97     1.548     1.416   0.0636         63     95.98873
 3.50    260.5782  15.4127     113479.1    997.2145 -60.88     2.174     2.033   0.0013         64     132.6275
 3.50    266.7132  15.8407     76509.62     67.3777 -78.85     2.116     1.998   0.0018         65     129.4312
 5.20    223.1785  20.3460     1206.649    345.6050 -22.38     1.579     1.463   0.1279         66     142.1535
 3.50    223.2261  21.4089     453.3503    774.7524 -19.32     1.202     1.068   0.1733         67     72.35423
 7.24    219.2476  22.2417      210.532    740.7268 -18.84     0.845     0.353   0.3695         68     71.62703
 4.32    244.2684  20.2558     1311.177    112.8208  77.16     2.123     1.544   0.1168         69     141.0444
 4.49    256.2215  19.1733     3553.565    612.7909 -37.89     2.503     1.802   0.0530         70     173.3484
 6.09    239.9036  21.1733     563.2048    838.4949 -37.93     1.369     1.007   0.2511         71     130.2376
 5.00    240.0472  24.2541     32.98938   1478.8186 -53.93     0.940     0.464   1.9641         72     59.66483
 3.50    313.2080  14.2893     319350.7    439.2092 -58.52     2.401     2.209   0.0005         73     146.1484
 6.70    252.6677  21.5167     410.4945   1372.6152 -44.30     1.226     0.877   0.3327         74     125.7382
 6.94    251.4614  21.4417      439.861    107.4959 -45.23     1.084     0.836   0.2968         75     120.2039
 5.43    254.3471  22.9901     105.6729   1352.5072   0.00     0.868     0.476   0.6651         76     64.71559
 3.50    288.3375  17.4560     17282.77   1486.2755 -55.67     1.869     1.782   0.0073         77     116.2181
 3.50    282.7324  19.2163     3415.667   1522.1934 -43.42     1.561     1.489   0.0310         78     97.61119
 6.94    271.2609  22.6560     143.7467   1273.5472 -11.08     1.161     0.926   0.9900         79     131.0391
 3.57    290.6129  20.0449     1592.341    514.7311 -61.03     1.859     1.552   0.0755         80     110.6807
 3.50    319.4862  16.2449     52729.28    905.2509 -61.70     2.069     1.942   0.0026         81     126.9812
 3.50    303.9936  17.7724      12913.7    201.5941 -73.78     1.829     1.708   0.0095         82     113.4832
 5.16    297.8686  20.3785     1171.167   1413.5083 -39.26     2.150     1.549   0.1582         83     170.6087
 3.56    294.7549  20.2712     1292.749   1327.3584 -23.02     1.400     1.322   0.0744         84     88.61547
 3.50    352.2489  14.4694     270553.4   1345.7200 -52.96     2.313     2.158   0.0006         85     141.0444
 3.50    352.2323  14.4271     281290.9    890.5778 -52.57     2.350     2.174   0.0006         86      143.619
 6.19    294.2966  21.1062     599.1444   1475.4912 -66.12     1.171     0.977   0.2163         87     119.3297
 3.50    302.8696  21.0338     640.4144    563.5292  64.37     1.321     1.261   0.1355         88     79.91786
 3.50    322.8518  18.2467     8342.608    697.1324 -67.39     1.711     1.657   0.0138         89     105.8451
 6.40    309.7060  21.2605     519.7587     85.4069 -81.45     1.983     0.885   0.3235         90     154.8448
 5.00    322.1810  20.8497     758.7629    641.0074 -76.22     2.195     1.269   0.2157         91     150.7332
 4.49    328.1170  20.0159     1635.525    595.2689 -50.18     1.627     1.559   0.0873         92      131.438
 5.36    317.8036  22.4861     168.0913    226.3809 -71.76     0.752     0.447   0.3560         93     55.10334
 3.66    347.0935  18.6250     5888.523    866.9109 -38.15     1.821     1.669   0.0215         94     116.6677
 5.35    332.8581  21.9007     288.2151     93.4377  -7.83     1.068     0.836   0.3513         95      93.2219
 4.20    330.3324  22.4075     180.7219   1545.6162  -6.15     0.994     0.631   0.3638         96     60.53589
 4.50    335.7877  22.1002     239.8408   1440.3218 -48.97     0.986     0.855   0.3373         97     74.49324
 3.79    356.5633  18.8616     4735.622    431.6613 -76.63     1.957     1.739   0.0289         98     126.1539
 3.50    350.8575  20.7697     816.8319     54.4747 -39.25     1.290     1.224   0.1045         99     78.59681
 5.14    348.6108  22.6257     147.8124     42.2829 -59.05     0.983     0.545   0.5099        100     69.39974
 3.50    368.9762  18.2020     8693.354    760.8817 -55.02     1.739     1.636   0.0132        101     105.3493
 7.08    351.1112  22.9843     106.2345    920.2661 -17.72     0.939     0.676   1.0408        102     101.8114
 3.50    362.0320  20.1782     1408.355   1500.1698  10.15     1.428     1.398   0.0683        103     88.61547
 3.61    368.2886  19.3423     3041.526    442.6443 -44.79     1.606     1.455   0.0358        104      100.257
 6.16    353.6877  22.9578     108.8652    350.3493  43.36     0.575     0.334   0.5001        105     50.12848
 3.50    396.0084  16.4469      43777.3    231.2756 -59.51     2.003     1.932   0.0031        106     123.2148
 6.26    360.5867  21.8535     301.0302    533.2850  21.62     1.031     0.915   0.4010        107     111.1527
 3.53    361.4968  22.7583     130.8169   1033.7421 -34.22     1.094     0.910   0.5167        108     62.24146
 5.96    363.8832  22.5176     163.2922   1415.6968 -78.20     1.038     0.416   0.4715        109     70.89238
 3.50    373.7502  21.6395     366.5911    992.1270 -58.62     1.191     1.021   0.2033        110     68.64125
 4.95    373.9765  21.6585     360.2404   1083.8434 -45.30     1.443     1.000   0.3235        111     107.3187
 6.12    369.9420  22.4847     168.3116    210.5096  87.58     0.786     0.499   0.4478        112     69.39974
 6.59    371.1455  22.1340     232.4974     71.4292 -16.36     1.204     0.716   0.5214        113     111.6227
 6.58    376.9810  20.8994     724.8282    753.9877  38.43     1.723     0.867   0.2195        114     146.5061
 3.50    397.8752  18.6458     5776.746   1461.0035 -57.54     1.678     1.607   0.0194        115     103.3425
 5.17    376.6144  23.1361     92.37561     86.3840  23.01     1.364     0.457   0.8675        116     73.78712
 3.50    398.9585  18.4879     6681.131    354.4046 -56.82     1.759     1.641   0.0177        117     108.7723
 5.97    380.9103  21.5951     381.9015    125.6369 -22.70     0.902     0.682   0.2434        118     85.61068
 3.64    394.5150  20.2966     1262.818   1088.6681 -16.65     1.553     1.372   0.0825        119     95.98873
 3.50    420.3994  16.5454     39978.42    433.1460 -57.35     1.997     1.878   0.0033        120     122.7892
 3.50    416.4439  17.3473      19101.5    837.1794 -67.30     1.895     1.794   0.0067        121     117.5617
 5.36    390.0044  23.2612     82.32617   1195.2917  85.80     0.739     0.674   0.8851        122     67.09855
 6.62    390.2305  22.7592     130.7172    260.4030  71.18     0.744     0.452   0.5703        123     68.64125
 4.81    397.2771  22.1006     239.7496    977.5050 -21.24     1.103     0.780   0.3679        124     81.21742
 5.97    397.9344  20.9702     679.1035    626.5070  15.77     1.528     0.795   0.1943        125     121.5034
 3.50    440.8153  21.5779     387.9995    305.5588 -50.74     1.189     1.082   0.2025        126     72.35423
 6.01    407.6977  21.9580     273.4097    281.6329 -82.40     1.007     0.467   0.3042        127     76.57252
 7.28    415.6719  20.8161     782.6155      2.5615  28.95     1.141     0.754   0.1384        128     99.73342
 7.80    404.5128  21.4912     420.2605    526.8889  -1.99     0.784     0.499   0.2290        129     88.61547
 3.50    425.0124  19.3353     3061.209    926.1458 -46.76     1.635     1.521   0.0356        130      100.257
 3.50    461.8470  15.2969     126247.9    807.3679 -54.81     2.148     2.048   0.0011        131     133.0216
 7.26    413.7131  22.3581     189.1244   1562.2982 -60.78     1.155     0.451   0.5449        132     94.89169
 3.50    438.7642  17.6750     14124.99    251.9271 -54.88     1.813     1.728   0.0087        133     112.5568
 4.91    421.8596  20.5265     1021.905    158.7295  50.88     1.660     1.444   0.1463        134     137.6633
 5.46    412.6987  23.3517     75.73816    199.3263  43.64     0.560     0.342   0.6395        135     44.60214
 9.12    415.3152  22.4704     170.5406    558.6304  42.89     0.584     0.328   0.4514        136     70.89238
 6.12    419.5396  23.0764     97.59546   1203.5216  13.28     1.222     0.608   1.0742        137     96.53259
 3.50    433.6358  20.5600     990.8475   1421.9036 -17.73     1.428     1.337   0.0965        138     88.02272
 6.05    427.7109  21.9610     272.6434   1179.3110  20.69     1.296     0.986   0.4942        139     124.0617
 5.64    420.6244  23.0312     101.7455   1579.7715  17.88     0.757     0.446   0.6368        140     59.66483
 7.11    424.8950  22.7942     126.5621   1063.8502 -46.61     0.815     0.670   0.8283        141     96.53259
 6.86    431.8513  20.7823     807.3556    717.7710 -64.55     0.930     0.895   0.1539        142     114.4021
 5.00    434.9498  21.2093     544.8333    151.0015  25.47     1.154     0.980   0.1902        143     95.44178
 4.46    468.5386  18.3826     7361.155    850.1890  22.22     7.442     1.903   0.0449        144     304.5761
 3.51    451.1122  18.9561     4340.797     21.1382 -39.37     1.703     1.572   0.0261        145     104.3508
 5.35    446.1109  20.8476     760.2784    122.1262 -32.70     1.653     1.204   0.1977        146     138.4218
 7.20    434.6680  24.0038     41.54126    353.3013  46.61     0.562     0.341   1.4405        147     55.10334
 3.57    448.0235  20.9449     695.0922    884.3464  -1.26     2.252     1.419   0.1809        148     115.7668
 3.50    458.6750  18.8607      4739.33     34.3958 -60.50     1.679     1.537   0.0234        149     102.3243
 5.33    444.1706  22.5751     154.8634    654.5854 -70.39     0.757     0.448   0.3995        150     56.97178
 3.53    464.5988  20.0235     1624.084    468.4730 -73.92     1.596     1.441   0.0645        151     96.53259
 4.28    453.8176  22.8145     124.2225   1533.1399  37.42     0.790     0.678   0.5060        152     57.88338
 5.10    461.9113  21.4097     453.0138   1096.1396  54.35     1.156     1.063   0.2465        153     102.8347
 3.50    472.0582  20.3112     1245.988    254.1115 -72.83     1.524     1.321   0.0783        154     89.78924
 5.22    462.3787  21.6616     359.2177    724.6503 -28.34     1.116     0.728   0.2532        155     83.75607
 7.22    457.7005  23.0465     100.3273   1223.6603 -42.96     0.565     0.339   0.6067        156     56.04535
 3.50    472.9619  19.8058     1984.713    734.7728 -38.58     1.496     1.347   0.0491        157     89.78924
 3.50    478.7596  19.5509     2509.806    922.8173 -35.41     1.544     1.447   0.0411        158     94.89169
 3.92    478.7934  20.7596     824.4447   1276.8331 -53.38     1.380     1.256   0.1228        159      93.2219
 4.44    476.5136  22.6435     145.4161   1168.0371 -89.76     0.813     0.676   0.4456        160     59.66483
 4.27    533.7934  17.3346     19327.46    518.6295  28.40     4.107     3.566   0.0166        161     295.6801
 3.50    484.9557  20.5738     978.3561   1070.4277 -66.11     1.365     1.226   0.0909        162     81.85947
 7.96    473.4778  22.2141     215.9486    781.5225  45.02     0.505     0.494   0.3711        163     73.78712
 4.94    496.9649  19.8455     1913.293     82.5904  56.28     2.338     2.068   0.1120        164      197.356
 5.19    489.7222  20.8751     741.2136    839.5610  85.43     1.974     0.945   0.1884        165     128.6197
 4.09    496.5237  19.7597     2070.798   1186.6776 -15.91     2.961     1.842   0.0909        166     173.3484
 4.58    481.6935  23.0688     98.28638   1309.1306  71.28     0.894     0.694   0.7414        167     67.09855
 3.62    479.8593  22.3951     182.7991    682.6145  17.68     1.030     0.720   0.3330        168     56.04535
 5.99    481.6788  22.6451     145.1929   1520.4889  -0.10     0.921     0.467   0.5303        169     70.89238
 3.50    513.2880  17.9956     10514.18   1302.2382 -66.23     1.839     1.727   0.0117        170     112.8104
 3.73    505.2572  20.4282     1118.763    763.0609  35.25     1.787     1.614   0.1115        171     114.8588
 3.50    516.2645  19.4185     2835.388   1460.9927  24.44     4.349     1.624   0.0648        172     169.0676
 3.50    502.7133  21.4300     444.6361    863.5478  86.67     1.248     1.114   0.1853        173     75.88576
 3.50    498.6334  22.1129     237.0417    366.2104 -49.91     1.014     0.951   0.2852        174     62.24146
 3.93    502.3745  22.1622     226.5312   1310.0952 -19.71     1.173     0.897   0.3469        175     72.35423
 4.28    514.1793  20.4422     1104.347   1310.0308  82.91     1.494     1.427   0.0771        176     78.41766
 3.50    514.5804  21.0115     653.7598   1179.1089 -56.89     1.341     1.068   0.1226        177     73.78712
 5.57    510.5956  20.8104      786.778    164.3583  -2.33     2.204     1.004   0.2071        178     150.0369
 4.19    520.3478  21.5501     398.0884    641.4071 -66.00     1.226     0.908   0.2180        179     79.91786
 8.37    511.4778  22.4639     171.5616    453.4842  44.04     0.503     0.496   0.4671        180     73.78712
 3.50    519.1760  23.1647     89.97119   1518.8837  43.20     0.828     0.669   0.5660        181      46.8909
 3.50    588.6913  14.3837     292757.2   1315.8531 -46.59     2.329     2.162   0.0005        182     143.2541
 8.13    521.5092  22.1688     225.1556    854.4668 -59.60     0.500     0.498   0.3559        183     73.78712
 4.34    541.0020  20.1890     1394.422    999.7307 -58.21     1.569     1.410   0.0912        184     117.1156
 4.50    536.8311  22.0451      252.317    404.4706  47.38     1.380     0.681   0.3383        185     78.59681
 6.50    545.6520  21.9464     276.3372    933.8276  70.97     1.235     0.753   0.4514        186     114.8588
 3.50    631.9619  13.7296     534751.2    483.1478 -47.23     2.858     2.668   0.0004        187      175.151
 3.70    559.8239  19.8529     1900.347   1041.5421 -18.76     1.577     1.488   0.0593        188     103.8479
 3.50    573.4060  18.6101     5969.525   1242.7255 -48.70     1.761     1.644   0.0197        189     108.2899
 4.47    597.4254  18.4546     6888.743    782.7070 -83.48     3.545     3.355   0.0442        190     280.6001
 4.22    571.6400  20.2026     1377.095     45.6350  59.09     1.992     1.404   0.1014        191     128.6197
 4.18    556.2180  22.9154     113.2026    778.7782  45.57     0.804     0.683   0.5377        192     56.04535
 3.50    581.4234  18.2704     8162.718    144.8262 -85.18     1.779     1.649   0.0143        193     107.3187
 3.50    572.2832  20.0323     1610.942   1448.0365  21.10     2.736     1.688   0.0923        194     136.9006
 3.95    565.5809  21.6673     357.3395    139.6900 -53.99     1.148     1.009   0.2306        195     75.88576
 3.50    582.9928  18.2952     7978.215    318.9863 -39.14     1.741     1.667   0.0145        196     106.8297
 6.38    563.6564  23.7590     52.04541    905.5596   5.49     1.049     0.627   1.9569        197      93.7818
 5.58    575.7251  20.4698     1076.641   1336.6144 -63.76     1.448     1.293   0.1389        198     137.6633
 6.82    576.9731  21.8287      307.975   1001.5249 -66.98     1.399     1.121   0.5496        199     155.8558
 3.50    585.4980  21.3162     493.7856     75.9934  34.12     1.282     1.160   0.1714        200     77.92789
 5.61    576.2507  23.6169     59.32422    549.0676  -3.84     0.664     0.432   1.0087        201     55.10334
 7.52    579.6700  22.5544     157.8428    740.6813 -45.54     0.569     0.338   0.4105        202     59.66483
 4.02   1002.4446  20.4201     1127.044   1555.2887 -75.10     1.475     1.318   0.0981        203     101.8114
 4.61   1597.9525  21.0034     658.5996    655.1014 -32.85     1.793     1.294   0.1802        204     109.2525
 5.62   1595.9124  21.3671     471.1405    374.0342  41.13     1.272     1.258   0.2781        205     120.6386
 6.88   1594.0922  23.1432     91.77588   1384.9441 -19.49     1.473     0.518   1.2814        206     108.2899
 6.99   1592.8507  24.0407     40.15295    567.1038  41.77     0.836     0.671   2.5814        207     95.44178
 3.51   1571.3456  20.2731     1290.526     92.7359 -46.28     1.463     1.342   0.0756        208     89.78924
 3.50   1523.4841  23.5858     61.04993     14.4994  44.62     0.509     0.490   0.6305        209     35.44619
 3.50   1515.7332  18.4917     6657.473    392.7216 -44.48     1.718     1.630   0.0177        210     108.2899
 5.42   1516.1362  21.2192     539.9069   1547.0354  59.82     1.454     1.004   0.2409        211     119.7676
 0.00    952.6561  99.0000    -80.49609    886.7118 -47.95     0.561     0.340  99.0000        212     51.16217
 3.50    950.6980  22.3736     186.4508    267.9047  28.11     0.947     0.863   0.3371        213     57.88338
 3.53    948.7698  22.0252      257.002    445.2767  -8.36     1.064     0.910   0.2594        214      61.3946
 3.50    947.9496  23.7054     54.68115    133.2829  89.95     0.730     0.666   0.8858        215     44.60214
 3.72    939.9116  20.0903     1527.172   1067.0671 -40.96     1.543     1.337   0.0686        216     96.53259
 7.61    942.2944  23.3072     78.91016    725.6536  42.39     0.565     0.339   0.8211        217     59.66483
 7.42    939.1722  20.5826     970.4358    515.9601  26.90     1.278     0.921   0.1627        218     145.4302
 3.50    930.5093  17.7522      13156.3   1178.4397 -63.94     1.809     1.764   0.0093        219     112.5568
 5.70    933.8318  24.9153     17.94153   1118.5709  12.09     0.875     0.614   4.5514        220     75.19272
 0.00    933.5328  99.0000    -104.8064   1027.5371  45.25     0.516     0.481  99.0000        221      61.3946
 4.76    929.1013  20.6904     878.6714   1322.4060 -85.48     1.407     1.267   0.1425        222     115.3137
 6.25    926.4553  22.3717     186.7719    665.7037 -88.92     0.928     0.456   0.4412        223     75.88576
 8.62    926.6777  22.7794     128.3076    934.3347  44.43     0.573     0.336   0.5810        224     68.64125
 5.11    926.6449  23.1326     92.67065     46.6976 -47.40     0.572     0.335   0.4487        225     38.28626
 0.00    919.9985  99.0000      -48.375   1027.5399  56.68     0.762     0.323  99.0000        226     57.88338
 8.42    918.4757  22.4452     174.5482    252.9750  32.09     0.796     0.313   0.4591        227     73.78712
 4.47    913.5744  20.9232     709.1094    838.4932 -17.32     1.372     1.256   0.1644        228     107.3187
 4.51    913.3035  21.4135     451.4425   1000.9104 -11.44     1.225     0.979   0.2146        229     89.20428
 8.56    908.4130  22.3337      193.432    658.8084 -20.19     0.749     0.447   0.4975        230     88.61547
 5.80    905.2918  21.5370     402.9119   1315.1288  40.86     1.390     0.833   0.3021        231     112.0907
 3.50    901.2191  18.7439     5277.403    302.8273 -74.09     1.691     1.589   0.0213        232     103.3425
 3.50    882.8359  13.0672     984265.9    183.6337 -36.29     4.129     3.698   0.0003        233     248.5449
 4.11    879.3942  18.5632     6233.162    224.3853 -89.82     7.579     1.983   0.0504        234     289.0549
 5.48    886.6755  21.0365     638.8387   1304.8312  69.25     1.659     1.272   0.2466        235     145.0698
 8.04    889.4891  22.6252     147.8899    680.4579  50.42     0.503     0.495   0.5418        236     73.78712
 4.55    896.9634  20.4518     1094.613    538.7819  -3.00     2.098     1.525   0.1454        237     146.5061
 4.20    886.5468  20.8920     729.8085   1500.5457   3.01     1.461     1.296   0.1538        238     103.3425
 4.40    885.8094  21.8600     299.2311    339.2329 -50.57     1.330     0.893   0.3129        239     86.22002
 5.88    879.0529  20.3008         1258   1177.1078  78.38     1.941     1.680   0.1667        240     193.0652
 4.58    878.3823  21.3835     464.0941    960.6887  83.41     1.256     1.192   0.2370        241     101.2959
 7.22    879.8236  21.9978     263.5708    673.3711   4.42     0.996     0.374   0.3211        242     77.92789
 4.95    877.6362  21.8023     315.5527    541.8445 -68.79     0.889     0.666   0.2388        243     69.39974
 4.43    870.1768  19.5411     2532.537   1103.6156 -61.56     2.074     1.779   0.0663        244     154.5063
 3.50    860.0833  14.5300     255847.6   1224.4911 -47.68     2.319     2.159   0.0006        245      141.415
 5.29    868.6845  20.7318     845.7889    939.5432  25.12     1.995     1.411   0.2073        246     161.4651
 5.10    870.6064  22.1188     235.7739    643.5370 -54.39     1.037     0.813   0.3943        247     85.61068
 3.90    889.3626  21.0737      617.355    325.6322  17.18     1.630     1.281   0.1800        248     102.3243
 7.64    867.6809  22.3449     191.4446    454.3147  45.23     0.563     0.341   0.3385        249     59.66483
 0.00    892.3138  99.0000    -9.631592   1453.3175 -44.80     0.562     0.341  99.0000        250     35.44619
 8.00    898.5093  22.6403     145.8472    987.5135  45.27     0.505     0.495   0.5494        251     73.78712
 3.50    881.0706  15.5357     101321.4   1592.5045 -66.40     2.127     1.980   0.0014        252      131.438
 5.35    900.5183  23.1229     93.51038    379.4817 -45.00     0.511     0.488   0.5822        253     50.12848
 4.33    860.3961  20.8022     792.7225   1157.4747  -1.20     1.415     1.294   0.1464        254     106.8297
 6.61    861.1950  22.2037     218.0309   1554.1703  42.07     0.759     0.567   0.3981        255     79.91786
 4.62    859.2386  21.3700     469.8892   1339.8370 -46.16     1.590     1.265   0.2748        256     118.8901
 4.33    894.8569  22.0565     249.6948   1425.8367 -39.54     1.211     1.023   0.3776        257     86.82507
 3.94    856.4521  22.8184     123.7814    545.3185  83.02     1.014     0.653   0.5078        258     57.88338
 6.69    845.8800  20.1969     1384.332   1206.5642  85.17     1.807     1.294   0.1456        259     185.5995
 4.64    845.9662  21.2038     547.6267   1063.6742  89.16     1.197     1.105   0.1904        260     95.98873
 8.32    847.6516  22.8437     120.9253    358.7094 -47.94     0.564     0.339   0.5955        261     66.31374
 4.01    844.1765  20.6869     881.5309   1106.0085  18.02     1.649     1.396   0.1358        262     110.2067
 5.35    838.6929  19.7528      2083.93   1247.0768 -32.77     2.123     1.570   0.0925        263     177.5261
 3.50    837.3973  20.3834     1165.873    298.6949 -26.40     1.378     1.249   0.0774        264     83.12868
 5.57    837.5710  23.4053     72.09155   1520.2875   7.21     0.957     0.484   1.0679        265     70.89238
 4.33    836.5140  22.2240     213.9855    819.0198  -0.57     1.082     0.929   0.4023        266     79.26009
 3.50    823.7377  18.7141     5424.441    654.3710 -54.11     1.702     1.624   0.0211        267     105.3493
 5.65    820.7242  22.4159     179.3228   1398.2626 -45.46     1.033     0.755   0.5473        268     90.37041
 6.21    819.5537  25.2046     13.74573    702.4227  75.71     0.930     0.814   7.7962        269     98.67801
 3.50    803.8622  18.7916     5050.671   1378.6096 -21.73     1.740     1.702   0.0233        270     108.2899
 3.50    799.2562  17.5880     15303.71    695.5490 -86.67     2.594     1.857   0.0098        271     138.4218
 3.50    801.5494  19.7103     2167.197     41.1097 -47.21     1.556     1.367   0.0467        272      93.2219
 3.50    786.3645  24.4179     28.36987   1348.2412  16.84     0.742     0.450   1.4123        273     36.89356
 4.73    774.9242  19.5811     2441.012   1427.4871 -80.02     2.969     2.204   0.0974        274     218.9836
 3.50    767.5738  20.5057     1041.599    391.7379 -67.87     1.399     1.279   0.0893        275     85.61068
 6.61    768.5201  21.9286     280.8981    140.3967 -55.99     1.096     0.753   0.4242        276     109.7306
 8.06    759.9716  23.9976     41.77844   1020.4913  57.79     0.794     0.314   1.9180        277     73.78712
 8.05    758.7314  22.7279     134.5422   1341.6193 -19.11     0.999     0.595   0.9048        278     112.0907
 7.71    755.4391  22.0400     253.5167    195.3306  50.93     1.281     0.507   0.4861        279     113.4832
 6.87    754.6496  24.9791     16.91846    433.6602 -45.40     0.587     0.327   3.4129        280     53.16928
 8.17    753.2500  22.5084      164.682   1080.7517 -18.40     0.867     0.354   0.5440        281     82.49651
 3.94    743.5427  20.3212     1234.618    556.2998 -21.20     1.383     1.282   0.0840        282     95.44178
 3.50    724.9424  14.1663     357666.2    404.7045 -46.93     2.406     2.206   0.0004        283     146.1484
 4.90    738.9064  21.6660     357.7701   1157.9508   1.73     1.220     1.143   0.3183        284     104.8512
 5.69    736.8120  21.2188     540.0974    649.5158 -57.46     1.284     1.211   0.2603        285     129.4312
 3.50    727.4276  16.1019     60148.94    848.3037 -42.83     2.120     2.006   0.0024        286     130.2376
 4.33    728.2363  20.7389     840.2731   1178.2656 -71.71     1.497     1.275   0.1406        287     108.7723
 0.00    740.3104  99.0000    -22.17664   1272.3551 -43.06     0.576     0.333  99.0000        288     53.16928
 6.41    722.1498  21.8014     315.8181   1394.6674  67.01     1.174     1.065   0.4506        289     131.0391
 4.03    716.7179  20.4780     1068.562    808.2800 -58.15     1.484     1.251   0.1014        290     99.73342
 5.19    709.5805  20.4521     1094.352   1163.7408  10.74     1.443     1.381   0.1328        291     133.8064
 4.50    704.9365  20.1369     1462.947   1339.0225 -35.32     1.746     1.681   0.1036        292     139.5518
 0.00    707.9461  99.0000    -27.92004    794.6355  86.27     0.715     0.646  99.0000        293      42.1894
 3.92    703.4935  19.6856     2216.866    952.2862 -18.86     1.625     1.545   0.0554        294     113.0209
 4.48    699.7203  21.0138     652.3704    582.8018   2.02     1.869     0.964   0.1819        295     109.2525
 5.28    692.6083  20.8718       743.53   1213.5952  57.54     1.506     1.276   0.1364        296     93.39706
 5.60    687.6442  21.4334     443.2315   1213.6564 -40.15     1.307     0.976   0.1446        297     59.02453
 0.00    693.6906  99.0000    -91.49414   1316.2979  45.71     0.551     0.345  99.0000        298     35.44619
 5.78    692.8769  21.8643      298.032    316.1330  48.88     0.828     0.663   0.2912        299     79.91786
 4.67    684.0256  19.3784     2942.082    472.4936  52.83     2.910     2.718   0.0883        300     239.0976
 3.57    686.2902  20.0079     1647.558    644.0512  42.53     1.531     1.435   0.0633        301     95.98873
 3.50    688.1401  22.3783     185.6442    130.8793  46.46     0.805     0.656   0.2609        302     44.60214
 4.57    682.3370  20.0366     1604.527    543.4663 -63.27     2.121     1.519   0.1011        303     149.3374
 5.25    673.8572  23.3233     77.74622    231.1585  61.85     1.162     0.421   0.9481        304     67.87428
 6.74    669.7614  21.7737     323.9775   1221.3247 -22.02     0.974     0.859   0.3773        305     112.5568
 6.71    667.3170  22.6815     140.4097   1180.0011   2.17     0.731     0.668   0.6478        306     83.75607
 3.50    649.1271  16.1233     58975.28   1464.2974 -58.66     2.075     1.942   0.0024        307      127.803
 4.97    655.4444  21.1458     577.6801    870.9727   6.69     1.205     1.054   0.1904        308     101.2959
 3.50   1551.7955  21.7870     320.0226   1221.6729 -32.21     1.026     0.978   0.2141        309     63.07695
 4.14    646.8544  21.6992     346.9858    652.7488  27.70     0.962     0.824   0.2100        310     67.09855
 3.50    640.5812  18.1838     8840.297    536.7190 -68.30     1.775     1.691   0.0135        311     110.2067
 7.03    642.0137  22.4028     181.5081    276.5096 -87.93     0.787     0.499   0.4742        312     79.26009
 5.15    631.7795  21.1091     597.5455    805.9449 -67.46     1.254     1.124   0.1994        313     109.7306
 4.72    629.6339  23.0926     96.15149    941.6058 -21.03     1.042     0.326   0.5543        314     49.07302
 5.45    624.2540  20.8812     737.0984   1581.3296 -24.63     1.442     1.261   0.1977        315     134.1971
 6.97    619.1545  21.8221     309.8634   1151.0912  43.65     1.117     0.934   0.4536        316     129.4312
 7.27    616.4916  23.1416     91.90771   1234.5254 -74.41     0.500     0.499   0.8020        317     67.87428
 7.54    610.1631  22.2766     203.8684    944.9097  41.60     0.839     0.661   0.5341        318      100.257
 3.50    608.4720  24.0702     39.07629   1011.9153   4.20     0.785     0.497   1.1375        319     40.92973
 3.50    606.2894  20.6707     894.7893    586.0947 -31.41     1.357     1.343   0.1032        320     84.99697
 3.50   1562.1376  20.9566     687.6603    861.4935   5.33     1.262     1.158   0.1187        321     75.19272
 5.98   1529.5508  27.4655     1.713135    733.3308  32.68     1.023     0.681  58.0179        322     91.52167
 5.15    589.1851  22.7499     131.8398   1139.4061  71.47     0.742     0.454   0.4298        323     52.17538
 4.94   1566.7651  20.1763     1410.834    784.6982 -84.12     1.821     1.377   0.1103        324     143.2541
 5.83   1581.9138  22.7239     135.0358   1414.7047  68.45     1.253     0.472   0.6427        325     79.91786
 3.51   1553.5024  17.2257     21366.29    682.1384 -29.96     4.698     3.910   0.0138        326     271.8825
 3.50   1585.7356  20.7017     869.6354   1108.8071 -45.53     1.410     1.206   0.1030        327     82.49651
 3.50   1564.5630  16.2577     52111.11    304.2780 -45.84     1.966     1.875   0.0025        328     121.5034
 3.53   1542.6790  19.3966     2893.065    135.1462 -57.03     1.585     1.524   0.0372        329     99.20712
 7.41   1576.4824  22.7341     133.7651   1491.4977  44.73     0.516     0.483   0.5511        330     67.87428
 3.50   1586.8705  22.0814       244.02   1069.2076 -26.32     0.977     0.733   0.2410        331     54.14495
 3.50   1558.8706  16.2700     51520.82    487.7123 -43.24     1.943     1.876   0.0025        332     120.6386
 3.59   1562.9105  23.5845     61.11975   1566.5850 -28.67     1.434     0.440   0.8907        333     50.12848
 8.06   1565.3141  22.1354     232.1937    386.6744  64.22     0.775     0.483   0.4172        334     89.20428
 3.50   1567.4845  20.0391     1600.873     22.0536 -35.09     1.501     1.336   0.0621        335     91.52167
 3.50   1546.9426  21.2587     520.6055    863.4279  79.12     1.442     1.277   0.1799        336     86.22002
 4.21   1536.6472  22.6711     141.7556   1429.4083 -57.98     1.567     0.952   0.7185        337      93.7818
 3.80   1543.5000  19.9891     1676.294    654.6492 -44.43     1.543     1.391   0.0656        338     101.2959
 7.78   1477.6925  22.4482     174.0734    198.6753 -44.09     0.562     0.341   0.3935        339     63.07695
 4.68   1533.0137  21.4535     435.1191    415.7943 -28.03     1.657     1.117   0.2844        340     113.9436
 4.87   1519.6189  22.1824     222.3539     84.3914  80.11     1.501     0.882   0.4897        341      100.257
 7.56   1502.3057  23.3835     73.55188   1412.6653  43.54     0.566     0.339   0.8810        342     59.66483
 5.85   1525.2084  21.8906      290.903    378.9753  80.66     1.380     0.702   0.3914        343     104.8512
 6.91   1539.6632  22.7109     136.6552    263.3266  45.45     0.576     0.334   0.4225        344     53.16928
 7.05   1527.5273  23.1407     91.98865    878.5313  49.71     0.500     0.498   0.7348        345     62.24146
 5.74    951.5252  20.6735     892.4471    654.1403  78.51     2.123     1.347   0.2139        346     175.7478
 6.67   1504.6394  22.1118     237.2932   1312.1968 -60.46     1.233     0.361   0.3717        347     81.21742
 3.50   1508.0370  16.9499     27545.58    269.3830 -51.48     1.875     1.773   0.0046        348     115.7668
 6.75   1521.7552  22.2697     205.1709   1100.5942 -83.82     0.997     0.482   0.4433        349     83.75607
 4.14   1515.3909  22.1351     232.2529    483.6699 -45.90     1.145     1.021   0.3737        350     79.91786
 5.57   1499.2957  21.3228     490.7716    844.5074  14.72     1.147     0.828   0.2195        351     99.20712
 7.80   1497.3391  22.3640     188.1084    930.6786  45.79     0.575     0.335   0.3544        352      61.3946
 5.15   1504.9111  21.4711     428.1305    723.3754 -14.58     1.267     1.119   0.2820        353     111.1527
 5.01   1483.2747  21.0573     626.7391    575.1030 -33.51     1.906     1.010   0.2186        354     126.1539
 5.75    977.4967  23.9257     44.64062   1280.5354  84.64     0.500     0.499   1.2195        355     50.12848
 4.78    953.0150  23.0400     100.9286     61.2813 -34.44     1.174     0.434   0.6606        356      61.3946
 5.50    979.2097  21.1683     565.8203    452.6703  73.39     1.079     0.952   0.1924        357      100.257
 5.78    982.8316  22.2952     200.4191   1487.1891 -47.73     0.766     0.557   0.3678        358     67.87428
 7.72    972.4925  23.9174     44.98108   1499.4553 -53.16     0.502     0.495   1.7643        359     73.07419
 6.56   1489.0807  21.4489     436.9487     77.8819 -75.41     0.962     0.688   0.2439        360     98.14605
 5.46   1476.3274  20.8272     774.6914    998.5892  -9.60     1.603     0.944   0.1703        361     121.5034
 4.69    987.5121  20.2133     1363.595    453.9747  88.37     1.715     1.484   0.1078        362     135.3624
 3.50    965.8497  21.9290      280.803    416.2971 -35.18     1.233     0.947   0.2655        363     68.64125
 0.00   1479.4890  99.0000    -8.478638    638.4839  46.79     0.501     0.499  99.0000        364     35.44619
 5.38   1439.3828  21.4258     446.3615   1271.1970  84.54     1.095     0.914   0.2388        365     98.14605
 3.50    985.6581  17.0455      25222.1    558.4474 -60.54     1.860     1.774   0.0049        366     114.4021
 3.50    998.9910  22.4063     180.9248    233.2787 -18.29     1.047     0.720   0.3308        367     55.10334
 5.84    981.6761  20.8393     766.1139    797.9857 -22.91     1.536     1.395   0.2181        368     153.8272
 4.79   1407.2278  21.6984     347.2367    329.8878  77.17     1.283     1.109   0.3279        369     104.8512
 5.76   1453.8417  21.9298      280.605    391.7621  21.98     1.190     0.813   0.3980        370     102.8347
 4.31   1060.6309  20.6090     947.1484    726.9678  18.85     1.586     1.368   0.1312        371     114.4021
 5.67    993.0269  22.8456     120.7119    500.0000  90.00     0.838     0.289   0.4415        372     49.07302
 5.19   1065.3551  22.4419     175.0796    292.5060  -0.67     0.931     0.478   0.3964        373     63.90152
 6.48    992.5980  23.2500     83.17883      9.8381  20.92     0.779     0.432   0.8761        374     67.09855
 3.50   1063.8134  21.8297     307.7058      7.4519 -49.92     1.309     0.988   0.2554        375     72.35423
 0.00   1439.4318  99.0000     -32.1189    646.8270  47.40     1.087     0.718  99.0000        376      93.2219
 3.50   1436.1301  19.4549     2741.769    224.7948 -34.44     1.604     1.459   0.0389        377     98.14605
 3.50   1440.6519  19.8031     1989.491    619.1653   9.05     1.445     1.337   0.0487        378     89.20428
 3.50   1084.5770  22.0218       257.79     43.0163  33.22     1.129     1.014   0.2859        379     67.87428
 8.23   1450.7783  24.2884     31.96277     88.3631 -73.90     0.748     0.452   2.9705        380     87.42595
 3.50   1386.5995  22.0454     252.2582   1274.1162 -79.55     1.184     0.678   0.2492        381     57.88338
 3.50   1073.9574  21.9139      284.741      6.6659 -10.48     1.253     1.042   0.2760        382     72.35423
 3.50   1435.2332  15.2956       126401   1090.4421 -47.26     2.094     1.972   0.0011        383      129.835
 7.30   1432.6862  21.2560     521.9233    341.5507  -7.52     1.510     1.030   0.3433        384      164.993
 6.66   1069.3281  25.2032     13.76355   1182.6630  44.61     0.577     0.334   4.1953        385     53.16928
 3.89   1416.2998  20.1479     1448.228   1386.6493  19.76     1.425     1.377   0.0732        386     97.61119
 3.50   1389.6022  18.5603     6250.194   1428.5128 -35.92     1.644     1.588   0.0178        387     102.3243
 4.22   1437.3093  22.3474     191.0017   1347.0366  73.00     1.028     0.724   0.3725        388     65.51954
 3.50   1067.5095  22.1718     224.5227    568.8696 -74.17     1.051     0.731   0.2756        389     56.97178
 4.53   1079.9409  21.0241     646.1606    330.0615 -62.65     1.125     0.943   0.1418        390     84.37881
 3.52   1393.0532  20.1001      1513.43   1038.7660  36.71     1.381     1.366   0.0623        391     86.82507
 4.20   1066.6592  22.1187     235.7915   1597.1162  36.70     1.159     0.981   0.3589        392     77.92789
 5.29   1072.8472  19.7257     2136.542   1219.1344 -71.81     2.172     1.586   0.0901        393     177.2309
 6.74   1414.8446  21.7991     316.4935      1.3369  76.87     1.069     0.416   0.2248        394     65.51954
 3.50   1420.1652  17.5765     15467.25   1126.3615 -58.87     1.926     1.752   0.0082        395     117.1156
 4.51   1360.4252  17.6931     13891.65   1135.0798  85.51     6.676     5.131   0.0222        396     283.9747
 7.40   1079.6525  25.0390     16.00977    921.6893 -46.67     0.573     0.335   3.9264        397     57.88338
 5.62   1412.1393  20.9229     709.3087    350.1120  23.37     1.424     1.101   0.1957        398      127.803
 3.50   1409.1057  19.8527     1900.745    308.4276  -7.76     1.523     1.467   0.0542        399     94.89169
 3.50   1367.0492  13.3850     734501.8   1159.7756 -48.42     3.323     3.056   0.0003        400     202.8501
 3.50   1162.6458  21.8132     312.4148    887.7574 -42.33     1.404     1.128   0.2732        401     78.59681
 4.68   1096.1305  20.9083     718.9333   1526.4138 -79.64     1.384     1.254   0.1714        402     113.4832
 5.79   1401.4601  21.3082     497.4292   1031.5901  46.87     1.406     1.196   0.2964        403     135.7486
 3.50   1394.2668  15.9308     70415.87    114.4738 -48.42     2.040     1.936   0.0020        404     126.5682
 6.46   1389.5433  22.0981      240.298    806.6446   0.13     0.949     0.941   0.5002        405     110.6807
 4.13   1391.2551  19.7074     2172.978    713.2373  26.66     1.497     1.456   0.0556        406     111.1527
 6.13   1388.2180  23.1510     91.11426   1384.9540   1.83     0.696     0.413   0.7215        407     60.53589
 5.41   1388.9937  23.7723     51.41394   1584.7758 -89.72     0.686     0.417   1.1231        408     53.16928
 5.53   1380.3506  22.4446     174.6532    318.5949  -4.36     1.034     0.628   0.5090        409     81.85947
 8.31   1094.4969  22.1184     235.8533    429.0226  -2.01     0.796     0.500   0.4420        410     95.98873
 5.88   1371.3206  22.7327     133.9437    705.8511 -32.13     1.214     0.408   0.6097        411     75.19272
 3.74   1371.5497  23.0754     97.68433   1215.7539  21.02     0.718     0.456   0.4406        412     39.63004
 7.57   1353.2751  21.5246     407.5327    152.0077  17.83     1.231     1.094   0.4268        413     160.1629
 9.28   1157.6599  22.1674     225.4529    568.3308  45.39     0.579     0.332   0.3520        414     73.07419
 3.50   1105.3257  18.1719     8938.201    751.8358 -44.66     1.770     1.620   0.0132        415     108.2899
 3.50   1373.4700  18.3779     7393.587   1018.9562 -23.41     1.815     1.707   0.0165        416     112.5568
 7.83   1260.4321  21.6905     349.7976   1015.6125  58.28     1.971     1.064   0.3318        417     106.8851
 5.52   1294.2798  20.0015      1657.31    742.2533  72.75     1.481     1.308   0.0910        418     138.7995
 3.50   1292.2153  18.6202     5914.581    762.1052 -25.95     2.162     1.723   0.0226        419     123.2148
 7.56   1369.4689  23.6690     56.54785    149.4737  17.40     0.499     0.499   1.3328        420     69.39974
 6.99   1131.8344  21.7370     335.1107    359.0297  34.13     1.138     1.043   0.4461        421     137.6633
 3.50   1130.7366  17.6977     13833.37    183.5802 -57.92     1.787     1.711   0.0087        422     111.1527
 5.31   1331.2352  21.9630     272.1421    386.9082   1.03     1.306     0.996   0.4360        423     109.2525
 3.50   1139.3163  16.9641     27185.88    148.0981 -46.09     1.899     1.811   0.0047        424     118.0062
 4.94   1346.4969  22.3374     192.7639    605.5798 -50.92     1.185     0.774   0.4925        425     87.42595
 4.18   1308.3901  19.5455     2522.373    669.6346 -12.17     1.506     1.500   0.0485        426     112.5568
 5.12   1333.5925  20.9991     661.2679    107.4225 -28.91     1.327     1.156   0.1894        427     115.3137
 3.50   1090.0750  19.6151     2365.789    642.4633 -46.35     1.578     1.413   0.0441        428     95.98873
 3.50   1320.9133  17.0024     26244.12    659.9951 -43.03     1.941     1.824   0.0050        429     120.2039
 5.13   1331.2213  20.4845     1062.173   1139.4135 -89.82     1.767     1.445   0.1509        430     147.5742
 5.43   1320.0242  21.2057     546.6608    264.0417 -45.50     1.309     1.038   0.2282        431     114.8588
 3.93   1330.7634  19.4231     2823.208    655.8417   4.85     1.684     1.650   0.0356        432     92.67092
 3.78   1278.8961  19.1769     3541.992   1331.4630 -56.91     1.622     1.533   0.0334        433     108.7723
 3.83   1305.5667  21.1286     586.9017    892.8640  77.78     1.231     1.139   0.1538        434     83.12868
 5.45   1245.3409  23.4888     66.75269    614.2117  55.72     1.066     0.800   1.4796        435     90.94785
 3.50   1299.2703  14.9880     167810.6    724.8672 -47.60     2.192     2.053   0.0009        436     135.7486
 4.36   1308.5709  19.4391     2781.926   1036.2755 -36.97     2.662     1.897   0.0694        437     177.8207
 8.09   1307.6787  23.1370     92.30359    574.6574 -44.07     0.576     0.334   0.7802        438     66.31374
 3.90   1273.5858  17.8283     12265.39    610.0049 -58.39     4.226     2.471   0.0202        439     227.6573
 4.25   1300.2339  22.5390     160.1049     54.0051 -29.97     1.122     0.858   0.5194        440     76.57252
 3.85   1263.1622  22.7659      129.907    215.8559 -41.55     0.728     0.565   0.3826        441     45.76083
 5.39   1292.0193  22.6599     143.2283    545.9752 -45.38     0.899     0.525   0.4845        442     63.90152
 3.50   1293.9078  21.0335     640.5955    412.7370  23.44     1.287     1.129   0.1275        443     75.19272
 4.35   1260.2809  20.0781     1544.461    432.4522 -61.87     1.924     1.810   0.1028        444     146.1484
 6.02   1278.3990  22.9854      106.132    343.4074  -1.19     0.918     0.658   0.8634        445     84.37881
 5.31   1274.1146  21.9333     279.6943    698.3151 -74.17     1.243     0.866   0.3893        446      100.257
 8.40   1158.6622  23.1329     92.64502    186.2973  47.11     0.563     0.340   0.7865        447     67.09855
 3.50   1266.2653  19.5047     2618.887    807.8691 -34.50     1.553     1.437   0.0396        448     95.44178
 5.63   1213.6493  20.1248     1479.321   1429.3060  77.16     2.725     2.083   0.1789        449     243.6523
 0.00   1238.9690  99.0000    -27.84253    857.0435 -50.04     0.811     0.782  99.0000        450     84.99697
 5.05   1131.0317  20.9423     696.7349    219.3827 -20.53     1.568     1.132   0.1894        451     121.5034
 3.76   1235.1206  19.7177     2152.299    304.8844 -70.00     1.601     1.472   0.0527        452     104.3508
 6.60   1230.6104  20.5716     980.3282    599.0931  13.10     1.561     1.462   0.2009        453     181.3192
 5.15   1203.8763  20.1396      1459.31   1075.5712  37.43     2.022     1.572   0.1237        454     166.2574
 3.50   1238.0283  20.3132     1243.679   1553.5206 -12.61     1.431     1.370   0.0784        455     89.78924
 3.66   1243.3585  21.3618     473.4619    672.6531 -75.48     1.362     1.197   0.1950        456     84.99697
 3.50   1222.2170  12.7279      1345354    995.1972 -29.50     6.401     5.215   0.0003        457     367.2289
 5.50   1211.9683  25.9404      6.97998    829.0000  90.00     0.845     0.289   7.6352        458     49.07302
 3.50   1215.4215  17.7951     12646.59    513.0118 -59.01     1.744     1.692   0.0093        459     107.8054
 4.69   1154.6307  20.7523       830.01   1353.0853 -56.52     1.612     1.412   0.1656        460     126.5682
 3.50   1219.7524  18.2748     8129.475   1195.0623  47.81     1.918     1.903   0.0162        461     121.5034
 5.03   1229.3567  21.9799     267.9467   1153.9326 -13.34     1.229     0.989   0.4085        462     100.7778
 3.50   1208.4735  20.4636     1082.799    838.8270 -35.35     1.394     1.273   0.0846        463     84.37881
 5.23   1195.7808  20.1201     1485.779    124.2719  85.27     1.875     1.703   0.1243        464     169.9939
 4.55   1205.1183  22.6081     150.2367   1217.1880 -44.51     0.858     0.657   0.4560        465     63.07695
 4.93   1262.9902  22.2469     209.5271    855.3846   0.11     1.019     0.768   0.4039        466     77.92789
 4.38   1202.6338  20.1037     1508.438    339.0765 -83.95     1.516     1.396   0.0837        467     116.2181
 4.00   1238.4276  21.8641     298.0916     48.1247 -11.79     1.158     0.950   0.2790        468     76.57252
 5.56   1028.6923  22.9491     109.7369    463.6869 -44.70     0.557     0.343   0.4414        469     44.60214
 3.50   1211.5623  17.8300     12246.14   1279.0439  81.01     5.652     3.475   0.0250        470     281.9031
 5.62   1182.5493  21.6418     365.8247    176.5511   8.16     1.425     0.969   0.3555        471     119.7676
 5.57   1159.2971  23.5268     64.45862    970.3315 -43.15     0.560     0.341   0.7515        472     44.60214
 4.80   1183.5492  22.7671     129.7668    673.2097 -21.31     1.027     0.930   0.7165        473     85.61068
 4.30   1130.0508  21.5216     408.6559    547.4385 -65.12     1.184     1.024   0.2226        474     83.75607
 3.52   1152.1665  20.6159      941.108     99.4363  -5.07     1.309     1.208   0.0930        475     80.57026
 7.58   1167.6770  23.1542     90.84692   1599.3630  46.34     0.885     0.518   0.8649        476     72.35423
 3.50   1165.9740  16.4507     43623.21   1299.8141 -73.19     1.994     1.896   0.0030        477     121.9335
 4.29   1134.6660  22.1508     228.9264    607.3837 -45.52     0.986     0.862   0.3467        478     73.07419
 3.70   1173.1541  18.6006     6022.088    757.8781 -78.56     3.576     3.345   0.0418        479     231.7595
 3.50   1152.4623  13.4655     682053.6    693.8153 -37.57     3.504     3.217   0.0003        480     212.9231
 0.00   1169.6912  99.0000    -20.05737    385.3456  43.30     0.572     0.336  99.0000        481     53.16928
 3.50   1181.6404  21.4761     426.1614    549.2858 -17.70     1.166     0.942   0.1670        482     65.51954
 3.62   1158.6710  18.8323     4865.056    236.4378 -45.47     1.660     1.640   0.0245        483     109.7306
 6.85   1197.1642  22.9546     109.1844   1053.6813  19.67     0.936     0.685   0.9815        484     98.67801
 4.87   1201.8149  20.8465     761.0127   1442.1520 -87.53     1.659     1.491   0.1991        485     139.5518
 6.43   1178.4944  22.6525     144.2081   1597.7561  72.38     1.154     0.262   0.4812        486     63.90152
 7.15   1142.0636  22.0120     260.1272    661.8563 -73.51     0.961     0.718   0.4460        487     106.8297
 3.50   1080.7614  16.9099     28577.87    512.1377 -66.90     1.874     1.779   0.0044        488     115.3137
 5.41   1121.0293  19.4117     2853.012    329.8812  58.47     2.566     1.726   0.0784        489     205.9238
 3.50   1108.1862  18.6764      5615.92    427.9433 -54.08     1.692     1.627   0.0202        490     104.3508
 5.36   1111.4923  20.0153     1636.435    479.1404  -7.99     2.159     1.548   0.1178        491     177.5261
 5.31   1115.1155  22.2275     213.2958    674.4976 -60.84     1.343     1.079   0.5871        492     115.3137
 3.50   1095.7281  17.0108     26042.31    778.1761 -41.61     1.938     1.855   0.0050        493     120.6386
 5.17   1091.6051  20.9757     675.6276    468.4292 -68.10     1.906     0.987   0.2061        494      128.212
 4.46   1105.9491  21.0747     616.7461    679.0923  38.97     1.516     1.082   0.1811        495     102.8347
 5.41   1095.1104  21.6913     349.5212   1136.4398 -85.66     1.091     0.933   0.3082        496     99.20712
 3.50   1082.6000  18.2698     8167.581   1148.1749 -75.07     1.756     1.711   0.0146        497     109.7306
 5.58   1040.7959  22.1038     239.0439    467.1765  60.45     1.002     0.638   0.3631        498     79.91786
 6.46   1085.8284  21.8908      290.868   1452.5986  76.35     0.929     0.621   0.3331        499     89.20428
 6.13   1066.0032  20.2956     1263.995   1562.7290 -64.61     2.578     1.374   0.1800        500     209.4527
 7.78   1020.1995  22.4778     169.3907   1267.6206  25.73     0.733     0.656   0.6258        501     97.61119
 5.27   1004.8460  23.1810     88.63794   1237.8386  49.76     0.764     0.567   0.7728        502     63.07695
 7.53   1052.5183  21.3494     478.9056    238.0324  26.05     1.259     0.570   0.2635        503     116.2181
 3.50   1030.9935  20.0536     1579.681    302.5808  71.36     2.461     1.757   0.0906        504     131.8357
 5.74   1001.6425  22.6900     139.3138   1025.6887 -46.97     0.578     0.332   0.3567        505     45.76083
 7.86   1044.5297  25.1796     14.06604    809.4821 -44.15     0.509     0.490   5.6969        506     73.78712
 3.50   1039.5049  18.4067     7199.712    525.3945 -59.24     1.681     1.610   0.0160        507     106.3386
 8.77   1042.6610  23.0040     104.3278   1095.3132  46.21     0.571     0.337   0.7380        508     70.89238
 3.50   1024.3846  13.9859     422307.4     50.1910 -43.62     2.321     2.148   0.0004        509     142.5213
 3.50   1041.0366  16.6277     37062.35    633.0386 -49.21     1.900     1.824   0.0035        510     118.8901
 3.50   1026.5739  17.4845     16834.67   1379.9857 -68.53     1.930     1.815   0.0077        511     118.8901
 5.52   1038.8489  21.7743     323.8055    121.9955 -35.31     2.009     0.803   0.4300        512      128.212
 3.50   1010.6155  17.6588     14337.16    813.6567 -57.65     1.843     1.780   0.0086        513     113.4832
 5.79   1026.6541  23.7183     54.03308   1028.6674 -45.54     0.582     0.330   0.9425        514      46.8909
 7.37   1038.3229  22.9189     112.8353    242.3527 -43.78     0.581     0.331   0.5394        515     56.04535
 5.53   1014.3884  22.1134     236.9484    453.2856 -71.18     0.977     0.589   0.3446        516     75.19272
 3.50   1012.0173  19.7864     2020.372    344.6626 -58.15     1.552     1.358   0.0504        517      93.7818
 4.00   1000.6549  20.7370     841.7559   1273.9332 -43.42     1.549     1.290   0.1314        518     101.8114
 3.68   1002.4809  19.7129      2161.87    542.4350  72.62     1.531     1.462   0.0493        519     98.14605
 5.95   1020.8218  23.0378     101.1343   1154.6001  71.58     0.761     0.450   0.7036        520     65.51954
 4.18   1011.5944  22.4919     167.2028    268.0587 -42.84     1.170     0.663   0.4409        521     67.87428
