#   1 KRON_RADIUS            Kron apertures in units of A or B                         
#   2 Y_IMAGE                Object position along y                                    [pixel]
#   3 MAG_BEST               Best of MAG_AUTO and MAG_ISOCOR                            [mag]
#   4 FLUX_BEST              Best of FLUX_AUTO and FLUX_ISOCOR                          [count]
#   5 X_IMAGE                Object position along x                                    [pixel]
#   6 THETA_IMAGE            Position angle (CCW/x)                                     [deg]
#   7 A_IMAGE                Profile RMS along major axis                               [pixel]
#   8 B_IMAGE                Profile RMS along minor axis                               [pixel]
#   9 MAGERR_BEST            RMS error for MAG_BEST                                     [mag]
#  10 NUMBER                 Running object number                                     
#  11 FLUXERR_BEST           RMS error for BEST flux                                    [count]
 4.25     94.1570  17.0992     24006.48   1124.7493 -68.11     8.199     3.769   0.0109          1     241.9702
 4.95     47.3470  19.1034     3790.147     46.5410 -16.09     3.493     3.138   0.0481          2      167.893
 3.50     32.9521  18.2908     8010.599    449.8849 -71.56     1.861     1.763   0.0088          3     65.16595
 3.50      7.8402  16.2736     51351.77    752.8575 -61.82     2.123     2.040   0.0016          4     75.39513
 7.90      7.3287  22.5043     165.3079   1284.2866 -47.46     0.554     0.344   0.2372          5     36.11197
 5.06      3.8817  20.8650     748.1969     72.1736 -16.48     1.297     1.175   0.0852          6      58.6864
 7.09      3.6434  20.9754     675.8309    946.9975 -11.20     1.397     0.946   0.1190          7     74.05268
 6.93      2.7658  20.6109      945.432    934.9667   5.19     1.486     1.178   0.0884          8     76.93173
 5.98      1.3488  22.2942     200.5952   1254.5757  -1.93     0.882     0.476   0.1771          9       32.711
 6.38      1.0000  22.5670     156.0229   1325.0350   0.00     0.860     0.289   0.1800         10     25.86032
 8.37     13.0423  21.5553     396.1827    858.5358  89.71     0.808     0.499   0.1487         11     54.24506
 7.51     27.2427  20.8192     780.3777    906.0284  62.58     1.235     1.115   0.1257         12     90.32621
 7.02     19.4468  22.2681     205.4819    234.2249  20.99     0.737     0.451   0.2183         13     41.29562
 8.06     24.1636  21.2197     539.6829    896.5063  -0.34     0.979     0.746   0.1435         14     71.29198
 3.50     32.3549  21.6431     365.3829   1514.8187  89.71     1.186     1.023   0.1166         15     39.21911
 6.47     27.5052  22.8522     119.9879    374.4735  45.86     0.511     0.488   0.2961         16       32.711
 5.35     33.3109  22.1705     224.8092      7.0528 -29.41     0.877     0.600   0.1915         17     39.64312
 7.27     32.5028  22.1530     228.4617    914.0272  -0.56     0.785     0.500   0.2267         18     47.68407
 4.86     69.0796  18.7268     5361.354   1463.1573 -72.90     2.832     2.480   0.0268         19     132.2421
 4.92     47.9787  22.8522     119.9832    228.2468  34.97     0.788     0.492   0.2770         20     30.59834
 5.48     49.6894  22.3460      191.252    343.8810 -30.33     0.884     0.599   0.2368         21     41.69851
 3.50     48.6995  23.2694     81.70581   1227.5970 -41.42     0.589     0.322   0.1883         22     14.16428
 8.16     50.9994  22.1662     225.7026    205.2584  89.97     0.683     0.438   0.2208         23     45.89751
 5.15     63.4169  21.2503     524.6589    888.7960 -31.82     3.064     0.817   0.1747         24     84.39343
 4.55     61.9151  21.1953     551.9377   1014.1193  49.58     1.303     1.242   0.1160         25      58.9706
 3.50     95.2679  16.6276     37065.04    916.6253 -19.93     2.422     2.058   0.0023         26     79.70686
 5.83     64.5669  21.2951     503.4515    893.1599 -16.96     2.011     0.917   0.1287         27     59.64871
 6.77     80.7907  20.3194      1236.63    541.1888 -68.13     2.157     1.464   0.1082         28     123.2102
 4.77     65.6199  21.5285     406.0731    970.7142 -47.07     1.062     0.962   0.1339         29     50.07829
 5.02     77.5636  19.9624     1718.083    183.5630  37.16     1.710     1.612   0.0535         30     84.59131
 3.55     94.6228  19.1471     3640.351    346.8269 -35.99     1.677     1.593   0.0179         31     60.09395
 5.25     93.1689  20.8584     752.7426    737.2796  14.59     1.251     1.167   0.0929         32     64.39167
 8.20     88.5198  22.5203     162.8917   1025.5172  44.87     0.510     0.489   0.2780         33     41.69851
 4.37    106.6651  20.2610     1305.001    973.7143 -40.27     2.136     1.690   0.0706         34     84.78872
 3.53    106.5207  19.5100     2606.265     47.5245 -36.46     1.582     1.560   0.0235         35     56.36126
 6.54    100.5170  21.1179     592.7146    356.8520 -25.56     1.159     1.063   0.1369         36     74.72692
 3.50     98.5842  22.0587     249.1832    326.1557 -76.66     1.017     0.724   0.1310         37     30.04697
 6.50     94.3919  22.4431     174.8929   1248.7111 -17.31     0.722     0.459   0.2355         38     37.91867
 8.16     99.6920  22.9383     110.8354    173.3035  45.27     0.553     0.345   0.3583         39     36.57201
 8.06    106.0233  21.3728     468.6893    266.4735 -26.77     1.097     0.647   0.1630         40     70.34767
 4.83    115.4942  21.6205     373.0769    924.7029  69.09     1.227     1.049   0.1641         41     56.36126
 3.66    125.6434  19.5285     2562.055    300.7448 -25.91     1.673     1.549   0.0257         42     60.64782
 5.28    110.8920  22.4972     166.3888   1457.8762 -43.13     0.852     0.658   0.2615         43     40.06263
 5.57    118.1392  21.0850     610.9572     79.4567  35.20     1.594     1.028   0.1296         44     72.91509
 5.84    111.6869  23.0873     96.61865   1000.3212  44.58     0.563     0.341   0.2978         45     26.49894
 7.47    113.3548  22.6600     143.2124    460.6852  46.69     0.578     0.332   0.2481         46       32.711
 4.38    114.4853  22.4628     171.7377     65.9743   2.48     0.781     0.499   0.1791         47     28.32856
 3.50    151.1911  17.4727     17017.69     45.4971 -66.61     2.041     1.875   0.0049         48     76.17525
 3.50    212.7002  14.0138     411600.9    966.9963  67.45     3.034     2.400   0.0003         49     96.76044
 4.55    130.1674  21.3266     489.0577     55.4243  86.66     1.181     0.973   0.1105         50     49.74331
 5.19    133.8928  21.7523     330.4296   1498.3713  36.64     1.003     0.833   0.1613         51      49.0665
 5.56    135.5188  22.4891     167.6278    735.5063 -70.98     0.956     0.414   0.2369         52     36.57201
 3.50    140.9441  21.4090     453.3094    218.5828  77.42     1.254     0.994   0.0960         53     40.06263
 4.75    158.6899  18.9989     4172.883     50.1477  10.83     2.348     2.026   0.0186         54      71.6087
 4.56    173.5511  18.9981     4175.993    556.9188  77.23     2.496     2.317   0.0292         55     112.1277
 6.34    144.6918  22.7238     135.0431   1194.3496  43.12     0.573     0.335   0.2416         56     30.04697
 4.48    152.7633  21.9000     288.3978    879.2148 -71.16     0.960     0.844   0.1585         57     42.09755
 4.57    183.9569  18.7768     5119.965   1262.7585 -84.47     2.679     2.323   0.0249         58     117.3728
 5.32    164.2391  21.3168     493.5078   1521.2362 -68.47     1.229     1.012   0.1341         59     60.92287
 5.85    166.0432  21.1023     601.2736    745.9159 -22.96     1.387     1.130   0.1338         60     74.05268
 5.41    163.4534  21.7917     318.6443   1154.1659  29.17     1.143     0.805   0.1806         61     52.99788
 3.50    185.4392  18.1961     8741.024    377.8520  44.06     1.855     1.791   0.0081         62       65.422
 6.81    169.3121  21.6703     356.3528   1159.0532  72.00     1.088     0.734   0.1922         63     63.08009
 5.72    164.5888  22.9729     107.3634    871.5212 -37.71     0.510     0.481   0.2982         64      29.4853
 6.12    173.3908  21.1849     557.2407    944.2777  23.96     1.450     1.084   0.1525         65     78.22479
 7.83    164.0000  22.2834     202.6036    757.9688   0.00     0.857     0.289   0.2214         66     41.29562
 6.57    174.5070  21.8921     290.5145    961.2061 -89.43     0.936     0.726   0.2073         67      55.4642
 3.50    237.4089  14.5917     241715.2   1389.3002 -60.89     2.351     2.198   0.0004         68      81.9817
 6.38    188.7956  21.1559     572.2956   1070.2379 -66.16     1.461     1.296   0.1140         69     60.08197
 6.71    195.9452  19.8606     1886.919   1065.9102 -53.12     1.931     1.731   0.0727         70     126.2926
 4.45    205.1032  19.2746      3237.17    985.2596 -83.24     1.782     1.741   0.0210         71     62.60808
 3.57    206.2079  18.9724     4275.886     21.3743 -77.09     1.693     1.604   0.0154         72     60.64782
 4.34    201.3544  20.2488     1319.685    185.4896  86.30     1.485     1.274   0.0508         73     61.74066
 7.05    189.0036  22.4749      169.833   1594.2350 -89.83     0.680     0.424   0.2453         74     38.35705
 4.84    191.5366  22.8971     115.1261   1097.4672  44.41     0.505     0.492   0.2182         75     23.13017
 3.50    224.9645  17.4624     17180.11   1092.9434 -75.05     1.945     1.811   0.0043         76     67.68293
 4.38    204.9958  20.7369     841.8231    353.2603  49.54     1.546     1.354   0.0841         77     65.16595
 6.59    201.9016  20.8511     757.8232    411.7759  22.68     1.623     1.125   0.1308         78     91.24699
 7.27    201.7012  21.7546     329.7285   1294.1659 -70.66     1.030     0.553   0.1856         79     56.36126
 3.95    219.1305  19.5839     2434.584   1020.2579 -10.95     2.049     1.908   0.0360         80     80.74882
 3.90    216.9382  20.5651     986.2001   1198.2729 -67.75     1.806     1.434   0.0703         81     63.87027
 4.80    209.8886  22.5115     164.2043    908.2451 -60.11     1.031     0.637   0.2677         82      40.4778
 4.71    268.0666  18.7103     5443.321    140.2715  63.45     5.455     1.957   0.0314         83     157.5146
 3.88    223.2836  20.6656     899.0413   1178.1260  36.13     1.421     1.146   0.0621         84     51.39637
 6.87    213.4799  22.6784     140.8168   1061.5094  44.65     0.512     0.487   0.2523         85       32.711
 5.89    243.6765  19.5725     2460.334    660.2729  56.74     2.330     2.070   0.0584         86     132.3685
 7.19    232.5093  19.8524     1901.216    654.0221   4.33     2.686     1.524   0.0854         87     149.4538
 3.64    243.0972  18.7264     5363.615    566.2015  29.51     1.831     1.749   0.0137         88     67.68293
 3.50    258.9529  17.9264     11205.36   1426.3889 -55.02     2.082     1.737   0.0065         89     67.18707
 4.32    236.7304  19.8190     1960.675    836.5421 -23.65     1.479     1.402   0.0349         90     63.08009
 4.43    234.4972  20.9564     687.7672    879.8083 -56.66     1.317     1.124   0.0871         91     55.16194
 3.65    247.8586  19.0118     4123.535    576.9484  28.21     1.725     1.657   0.0159         92     60.38906
 5.68    241.6002  20.4950     1052.002    368.8590 -66.00     1.584     1.499   0.0931         93     90.14092
 3.50    231.4599  23.1525     90.99048   1316.5281 -43.68     0.508     0.490   0.2391         94     20.03132
 6.87    256.0625  20.4492     1097.321     76.0572 -78.27     2.310     1.137   0.1135         95     114.6344
 3.82    286.3719  17.6165     14907.49   1328.0706 -62.90     3.890     3.155   0.0100         96     136.7177
 5.62    254.1811  19.7992     1996.718   1369.5127 -46.50     1.972     1.808   0.0592         97     108.7979
 4.51    238.3008  23.1089     94.72339   1316.6440  42.47     0.572     0.335   0.2297         98     20.03132
 7.32    243.0217  21.1985     550.3085    966.3827 -11.22     1.220     0.776   0.1439         99     72.91509
 8.17    249.4651  21.3546      476.606   1163.2465 -87.55     1.011     0.708   0.1608        100     70.58493
 4.76    251.7740  21.7467     332.1499    914.5338 -22.40     1.742     0.609   0.1659        101     50.74161
 6.79    262.3152  20.6902     878.8928    410.3904 -36.29     1.932     1.068   0.1233        102     99.82217
 4.93    296.6697  18.8001     5011.567    374.3661  32.26     5.369     2.131   0.0370        103     170.9521
 4.63    279.1549  19.3000     3162.301   1128.3959 -42.43     2.378     1.745   0.0332        104     96.58751
 5.14    265.0267  21.4175     449.7729    271.3459  62.87     1.163     0.935   0.1332        105     55.16194
 4.02    265.3846  22.5840     153.6046    721.8150  85.12     0.992     0.380   0.1828        106     25.86032
 5.52    266.8948  21.8979     288.9736    766.6589  13.69     1.008     0.750   0.1857        107     49.40607
 5.75    267.8004  22.8455     120.7239   1587.3848 -72.59     0.760     0.451   0.3164        108     35.17384
 3.50    281.3238  19.4184     2835.502    954.9826 -84.42     1.527     1.520   0.0211        109     55.16194
 3.50    286.3437  19.8623      1884.08    743.1180  68.50     1.558     1.417   0.0305        110     52.99788
 5.12    279.5313  22.9736     107.2856    885.4368 -74.77     0.499     0.496   0.2618        111     25.86032
 4.28    313.5876  18.7245     5372.602    792.2487  34.69     2.350     1.960   0.0191        112     94.48753
 6.52    298.8550  21.4345     442.7942    863.1819   4.80     1.090     0.985   0.1690        113     68.90695
 3.50    338.2658  17.3325     19364.68    595.9975  86.26     1.988     1.823   0.0039        114     68.66389
 3.50    374.0516  14.4943       264417   1262.5981 -43.64     2.343     2.212   0.0003        115     81.57281
 6.78    314.6675  20.7546     828.2679    802.7544 -18.94     1.737     1.419   0.0869        116     66.27322
 3.50    332.8217  18.3896     7314.065    788.9773  77.38     1.801     1.696   0.0092        117     62.27989
 7.92    310.6430  22.1291     233.5416   1549.2216 -16.94     0.748     0.446   0.2185        118      46.9776
 6.14    323.1217  21.0288     643.3964    832.5522  78.74     1.122     1.038   0.1130        119     66.93777
 5.08    323.1987  21.2926     504.6073    288.7291  15.01     1.259     1.110   0.1317        120     61.19668
 3.58    335.5175  20.1215     1483.815   1145.5067  -3.58     2.145     1.792   0.0525        121     71.75947
 4.64    328.8070  20.6909     878.2721    720.3349   3.49     1.256     1.173   0.0726        122      58.6864
 7.17    326.4636  22.2124     216.3009    156.8145  84.35     1.010     0.378   0.2230        123     44.41655
 5.31    334.9207  20.8900     731.1351    661.6074  26.59     1.595     1.397   0.1206        124     81.16186
 6.72    335.5432  21.2035     547.7524   1037.4845 -50.33     1.435     0.834   0.1473        125     74.27811
 4.62    361.3767  18.9640     4309.269    708.3899 -68.65     2.379     2.219   0.0275        126     108.9515
 7.08    347.7137  21.1317     585.2065   1598.6823 -79.01     1.124     0.968   0.1151        127     62.01086
 3.60    375.0627  18.2027     8687.766   1363.9340   2.09     3.088     2.411   0.0126        128     100.6561
 5.22    360.9517  20.6525      909.901    640.6298  75.08     1.416     1.325   0.0878        129     73.59975
 7.34    348.8523  22.1489     229.3115   1576.8534  47.93     0.767     0.569   0.2308        130     48.72457
 3.50    363.9760  19.8687     1872.904    504.0932 -14.26     1.535     1.436   0.0313        131     53.93597
 9.13    358.2023  21.9743     269.3278   1050.3724  72.23     0.754     0.446   0.2162        132      53.6251
 5.78    369.4063  21.2742     513.2546   1341.4336  28.52     1.585     0.990   0.1572        133     74.27811
 7.95    359.4590  22.3499     190.5583   1094.5118 -21.09     0.500     0.498   0.2376        134     41.69851
 7.06    369.6529  21.7507     330.9237    643.0444 -67.01     1.486     0.435   0.1907        135     58.11383
 8.31    363.6567  22.7746     128.8724     97.3249  45.78     0.578     0.333   0.3158        136     37.47516
 3.56    389.2385  18.7443     5275.528   1463.0966  57.58     1.796     1.631   0.0128        137     62.01086
 4.08    401.0529  18.4929     6650.043    824.7330  48.37     3.253     2.740   0.0205        138     125.2291
 4.81    377.7523  21.2558     522.0068    162.8285 -35.17     1.129     1.085   0.1135        139      54.5524
 3.50    385.9117  20.3928     1155.825    867.6343 -73.67     1.442     1.322   0.0471        140     50.07829
 6.46    383.3534  21.0000     660.6813   1277.6696  75.68     1.166     1.055   0.1217        141     74.05268
 3.50    392.8899  19.7092     2169.279   1317.5302 -48.64     1.483     1.396   0.0259        142     51.72063
 4.52    451.1505  17.8935     11550.71   1219.8578  56.07     6.476     2.500   0.0175        143     185.9427
 3.50    413.7905  17.5120     16413.49     67.1341 -60.83     1.974     1.853   0.0046        144     68.90695
 6.39    391.2280  21.7434     333.1399   1206.1643 -88.79     1.130     0.746   0.1941        145     59.53492
 3.50    417.1918  17.1692     22507.42   1307.9253  37.73     1.929     1.914   0.0033        146     68.90695
 7.10    413.1869  20.8718     743.4741    665.6929  81.38     1.328     0.991   0.1227        147     83.99628
 7.54    410.2010  21.2896     506.0061    749.6277 -26.28     1.191     0.770   0.1570        148     73.14402
 3.50    458.0979  15.7939     79883.87     12.4038 -59.41     2.124     2.082   0.0010        149     75.17306
 7.10    420.3788  21.1365      582.619    101.8098  71.35     1.223     0.902   0.1422        150     76.27698
 8.84    415.5115  22.1269     234.0079   1157.4949 -44.64     0.504     0.496   0.2079        151     44.79139
 8.79    420.2401  21.7378     334.8834    890.9982   1.82     0.800     0.551   0.1949        152     60.09395
 7.59    421.2487  22.3323     193.6777   1572.0276  -1.34     0.693     0.432   0.2361        153     42.09755
 6.96    425.6347  22.2104     216.6921    962.6557 -44.37     0.851     0.522   0.2407        154     48.03341
 3.75    439.7845  20.4201      1127.07    908.6335 -52.06     1.883     1.435   0.0608        155     63.08009
 3.50    466.2373  16.4687     42905.86   1074.6401 -82.23     2.009     1.929   0.0018        156     71.05708
 4.93    439.3988  21.6597     359.8608    814.9534 -86.52     0.990     0.950   0.1501        157     49.74331
 4.06    450.3367  20.0138     1638.551    174.3367  24.26     1.781     1.447   0.0445        158     67.18707
 3.66    449.1495  20.6680     896.9814    290.5052  -2.34     1.266     1.220   0.0569        159      46.9776
 3.75    462.7975  19.8744     1863.178    275.5684  22.46     1.563     1.439   0.0339        160     58.11383
 4.60    457.7794  21.5679     391.5918   1159.6694  30.96     1.323     1.096   0.1596        161     57.53558
 4.24    464.8949  21.0184     649.5789   1190.3889  89.16     1.284     1.008   0.0826        162     49.40607
 5.44    462.5362  21.4536     435.0908   1091.4558  46.22     1.073     0.828   0.1315        163     52.68147
 7.04    458.3414  22.8775     117.2188    977.3062 -46.69     0.569     0.338   0.2835        164     30.59834
 3.50    488.4671  18.3200     7798.379    573.8985  65.18     1.749     1.715   0.0086        165     61.46927
 3.50    478.8458  20.6316     927.6228   1017.2892 -36.08     1.346     1.227   0.0542        166     46.26034
 6.16    474.5374  21.7030     345.7806   1137.3838  51.60     1.144     0.789   0.1879        167     59.81509
 7.74    473.0392  22.1358     232.0992    250.0121 -88.81     0.629     0.610   0.2247        168     48.03341
 8.05    480.7053  21.9648     271.6907   1570.9915 -56.06     1.184     0.443   0.2380        169     59.53492
 3.50    505.4442  18.2996     7946.293   1141.7743 -77.26     1.790     1.681   0.0085        170     62.27989
 5.17    497.3044  20.9689     679.8972    604.5627 -31.43     1.521     1.246   0.1168        171     73.14402
 4.88    509.5489  19.9884     1677.352    999.2165 -69.39     1.892     1.542   0.0549        172     84.78872
 6.12    491.4751  22.8412     121.2013    126.0398 -31.68     0.809     0.309   0.2931        173       32.711
 4.61    506.7564  20.6670     897.8007    538.3772 -39.15     1.248     1.201   0.0696        174     57.53558
 6.48    501.2858  21.3691     470.2867   1011.1366 -15.97     1.193     0.944   0.1624        175     70.34767
 3.63    536.9082  18.6553     5726.194    352.6194   1.95     3.045     2.557   0.0197        176     104.0858
 5.61    532.8222  19.8498     1905.808    671.6838 -87.78     2.220     1.914   0.0445        177     78.04305
 4.11    530.4657  19.3835     2928.168   1006.1499 -29.50     3.129     1.873   0.0377        178     101.6478
 4.35    515.1706  21.7904     319.0481   1524.4115  21.59     1.027     0.838   0.1378        179      40.4778
 3.50    547.5992  17.5265        16195    373.7482 -79.16     1.871     1.761   0.0043        180     64.65079
 6.26    517.8668  21.9972     263.6978   1431.5239   1.73     0.928     0.743   0.2208        181      53.6251
 5.78    539.7258  20.0298     1614.702    673.9117 -57.04     2.086     1.647   0.0461        182     68.52533
 3.50    532.7166  20.9909     666.2267    653.9492  82.08     1.264     1.118   0.0680        183     41.69851
 3.50    561.1493  16.9189      28342.7    582.4084  88.25     1.943     1.890   0.0026        184     68.17517
 3.50    557.4207  17.5012     16577.74   1456.0345 -65.47     1.879     1.830   0.0044        185     66.43636
 3.50    566.7148  17.1911     22057.02    955.7006 -78.38     1.906     1.800   0.0033        186     66.68754
 6.89    543.4722  22.0814     244.0393    982.6802 -89.35     0.913     0.466   0.2010        187     45.16311
 3.50    573.1162  17.2142     21593.37   1028.1451 -54.28     1.932     1.853   0.0034        188     68.17517
 5.44    549.3787  21.4798      424.713    755.1135 -34.91     1.325     0.965   0.1606        189      62.8145
 3.50    556.3796  20.5383     1010.837   1073.0961 -27.96     1.485     1.224   0.0516        190     48.03341
 5.45    554.3296  21.5449     399.9915      3.4401  59.18     1.000     0.966   0.1369        191     50.41104
 5.15    557.5020  22.3774     185.7939    270.9468  87.46     0.804     0.701   0.2267        192     38.79048
 3.65    570.2971  20.8769     739.9901   1513.4263  20.57     1.251     1.230   0.0679        193     46.26034
 3.70    561.7103  23.2125     86.09937    757.2952  44.62     0.541     0.348   0.2063        194      16.3555
 3.50    579.8986  19.6876     2212.915   1365.4912  69.09     1.548     1.334   0.0259        195     52.68147
 7.26    562.5344  22.5566     157.5264    231.4810  41.04     0.502     0.496   0.2644        196     38.35705
 5.30    568.7847  22.1458      229.964   1327.9811  65.62     0.991     0.611   0.2007        197     42.49284
 3.50    720.0618  15.6469     91464.86    199.1909 -41.82    13.077     9.717   0.0048        198     404.3647
 6.56    585.1160  21.3897      461.451   1527.1716 -53.11     1.412     0.836   0.1721        199     73.14402
 5.02    585.8004  21.6013     379.7513    272.7299  74.17     1.403     0.987   0.1719        200     60.09395
 5.58    613.2350  18.8853     4633.149    571.9507  76.43     2.783     2.146   0.0329        201     140.3384
 4.51    987.4315  20.2962     1263.339    729.5488 -68.63     1.460     1.275   0.0547        202     63.60797
 8.33   1598.4415  21.8726     295.7635   1443.7629 -19.91     0.735     0.456   0.1631        203     44.41655
 3.50   1595.0242  22.8598     119.1492    335.0103 -89.35     0.624     0.607   0.1900        204     20.84925
 5.09   1583.5215  18.5095     6549.162    830.3893 -72.74     3.707     2.843   0.0279        205     168.3902
 6.12   1576.9705  20.6896     879.3564    508.9666  89.13     1.612     1.207   0.1081        206     87.50575
 4.51   1574.5171  20.8327     770.7281     27.8831 -87.91     1.320     1.127   0.0798        207     56.65712
 3.50   1553.8016  21.1616     569.3433   1073.4061  49.03     1.171     1.091   0.0780        208     40.88875
 4.02   1554.8267  22.3771     185.8439    636.8438 -48.40     0.826     0.671   0.1788        209     30.59834
 5.82   1551.8873  21.5329     404.4264    217.3465 -74.79     1.326     0.773   0.1621        210     60.37152
 3.89   1532.0197  19.6659     2257.469    867.3597  86.06     1.589     1.537   0.0256        211     53.15333
 4.09   1451.6503  22.3512     190.3386   1206.0732  69.49     0.908     0.669   0.1807        212     31.67229
 3.50   1385.0707  15.9916      66580.8    906.9302 -73.43     2.137     1.994   0.0012        213     74.05268
 3.50    850.0124  16.4308      44428.8    214.4727 -66.55     1.976     1.937   0.0017        214     70.34767
 7.83    854.6661  22.9054     114.2412    613.3131  46.01     0.569     0.338   0.3389        215     35.64599
 3.50    839.7684  14.3404     304675.4    275.0393 -39.86     2.346     2.210   0.0003        216     81.36759
 5.05    848.7388  19.8026     1990.479    646.4524 -73.63     2.492     2.052   0.0638        217     116.9447
 3.50    845.2832  20.3975      1150.81     98.6556 -80.65     3.295     1.270   0.0697        218     73.82656
 5.04    846.4573  21.2556     522.1029   1141.6185  71.75     1.481     0.918   0.1262        219     60.64782
 3.50    879.4688  17.7457     13235.09   1340.6351 -67.68     1.854     1.745   0.0052        220     63.60797
 5.77    835.4118  21.1821     558.6957   1371.1257  40.46     0.995     0.929   0.1101        221     56.65712
 4.22    826.7810  21.7391     334.4783    342.2381  79.02     1.218     0.958   0.1502        222     46.26034
 3.50    823.0052  22.5753     154.8356   1599.5493 -89.49     0.787     0.498   0.1462        223     20.84925
 7.82    821.6789  22.9893     105.7474   1153.3163  45.24     0.565     0.340   0.3661        224     35.64599
 3.50    818.6816  20.5772     975.2952   1030.0120  12.00     1.329     1.314   0.0523        225      46.9776
 4.00    816.9885  20.8851     734.4341    819.3132  69.68     1.278     1.162   0.0736        226     49.74331
 6.86    806.8745  22.1501     229.0724    300.1245  46.58     0.818     0.677   0.2467        227     52.04288
 3.50    793.3639  21.2833     508.9478    937.7939 -10.86     1.696     1.064   0.1040        228     48.72457
 5.79    793.2579  21.4991     417.2054    434.5865  65.46     1.262     0.900   0.1656        229     63.60797
 3.50    792.0000  22.0258     256.8536   1463.8378 -87.87     0.982     0.838   0.1383        230       32.711
 3.50    787.0515  17.0894     24223.32    527.2347 -72.96     1.981     1.904   0.0031        231     68.90695
 8.10    789.3751  21.3109     496.1978    867.7164  71.58     0.990     0.587   0.1386        232     63.34458
 4.42    787.4064  21.3514      478.009   1108.0948 -83.32     1.505     0.950   0.1225        233     53.93597
 3.50    776.7722  15.0879     153048.6    727.4407 -70.96     2.201     2.085   0.0005        234     76.49585
 5.57    787.2328  22.1044     238.9154    218.2828  -5.47     0.908     0.647   0.2002        235     44.03853
 3.50    784.8297  21.4367     441.9048    183.9135 -33.23     1.146     1.032   0.0932        236     37.91867
 7.51    784.8787  21.6139     375.3658    374.6598 -18.08     0.909     0.675   0.1755        237     60.64782
 3.50    780.7609  20.0048     1652.255    992.5387  78.75     1.368     1.334   0.0318        238     48.38022
 3.50    770.8383  16.4571     43368.31    369.1132 -67.78     1.974     1.895   0.0017        239     68.90695
 6.53    765.6365  21.2301     534.5216   1409.5160 -88.44     1.290     0.964   0.1514        240     74.50285
 4.26    762.5145  21.9207     282.9464   1360.1163 -73.92     1.068     0.877   0.1569        241     40.88875
 4.89    760.6526  23.1516     91.06555   1039.3221  46.07     0.578     0.332   0.2389        242     20.03132
 5.12    756.9484  21.8150     311.8925    889.1730  57.64     0.988     0.660   0.1466        243     42.09755
 7.67   1583.2874  21.8896     291.1669    370.4407 -21.32     1.147     0.537   0.2293        244     61.46927
 6.56    743.2925  22.0476     251.7462   1293.0260  -1.59     0.747     0.687   0.2042        245     47.33215
 3.89    735.6713  20.6936     876.1298    372.2827 -40.50     1.368     1.185   0.0633        246     51.07003
 6.88    735.5160  22.4194     178.7426   1080.9215  -0.57     0.773     0.500   0.2582        247     42.49284
 5.86    731.2867  21.7669     326.0148   1468.3378 -76.91     1.246     0.664   0.1817        248      54.5524
 7.24    743.0247  21.2584     520.7494   1432.4613 -87.49     1.168     0.954   0.1645        249     78.86337
 3.50    728.8027  20.7152     858.8567    127.9314  65.09     1.815     1.633   0.0777        250     61.46927
 3.94    724.3919  20.0860     1533.182    970.2457 -85.18     2.450     1.662   0.0573        251      80.9556
 3.79    727.3688  20.2832     1278.589    624.0144  -1.82     1.372     1.300   0.0442        252     52.04288
 6.70    725.8500  22.1940     219.9982   1433.8589 -44.25     0.839     0.661   0.2488        253     50.41104
 3.50    719.8369  21.3939     459.6637    658.6907 -62.65     1.174     0.973   0.0906        254     38.35705
 5.95    741.9766  20.3750     1174.908    918.1022 -47.94     1.918     1.206   0.0859        255     92.88139
 3.50    709.9418  19.0887     3841.549   1354.0551 -76.30     1.612     1.400   0.0150        256     52.99788
 6.10    711.6713  22.2011      218.556   1241.1521  67.80     0.948     0.677   0.2505        257     50.41104
 4.90    708.2723  21.6516     362.5308    403.1562   0.61     1.165     1.006   0.1616        258     53.93597
 4.94    705.6754  22.9315     111.5328   1242.6392 -43.61     0.585     0.328   0.1950        259     20.03132
 4.08    702.4844  19.5202     2581.887   1039.8816 -86.80     1.517     1.453   0.0259        260     61.46927
 5.80    702.4802  22.2343     211.9729     19.4207 -56.86     1.880     0.358   0.2496        261     48.72457
 3.50    698.2388  18.2783     8103.667     96.4589 -50.86     1.676     1.662   0.0081        262     60.37152
 7.72    698.9081  21.7348     335.8073    910.4150 -26.53     1.143     0.575   0.2074        263      64.1315
 5.83    688.0648  21.2042     547.4324   1185.2397 -46.18     1.275     1.213   0.1487        264     74.95032
 6.19    684.8482  20.4420     1104.574    494.5381  76.41     1.602     1.296   0.0894        265     90.87979
 5.18    682.2822  21.1318     585.1465   1071.8645 -37.59     1.224     1.033   0.1110        266     59.81509
 3.50    664.6374  14.0379     402557.7   1486.4188 -57.27     2.380     2.204   0.0002        267      81.7775
 6.97    677.6722  22.9200     112.7151    940.3181  45.48     0.568     0.338   0.2895        268     30.04697
 5.61    674.2509  20.9208     710.6609   1442.3577 -23.85     1.299     1.244   0.1111        269     72.68543
 3.50    668.4413  17.9878     10589.45   1089.8324 -70.08     2.151     1.765   0.0071        270     69.63103
 4.30    671.5085  21.2460      526.734    757.8257 -19.21     1.344     0.905   0.0997        271     48.38022
 6.96    671.3718  21.1455     577.8464    456.0335 -16.19     1.194     0.979   0.1462        272     77.79616
 6.39    669.1052  21.2722     514.1995    350.0106 -40.48     1.529     0.838   0.1574        273     74.50285
 6.10    667.8962  20.8654     747.9078   1306.5988 -37.77     1.487     1.013   0.1127        274     77.58096
 7.27    668.6582  22.6680      142.166   1040.7002 -47.10     0.566     0.339   0.2419        275     31.67229
 3.86    661.3326  21.0682     620.4758    316.6511 -21.41     1.393     1.225   0.0967        276     55.26975
 3.50    654.3220  19.1363      3676.97    312.1318  58.15     1.666     1.591   0.0173        277      58.6864
 7.79    659.0103  22.4990     166.1074    921.7308  89.37     0.670     0.444   0.2854        278     43.65724
 5.36    657.1987  22.4416     175.1344    685.8965  42.06     0.843     0.670   0.2561        279     41.29562
 3.83    652.8804  19.3034     3152.298     16.1437 -66.82     1.659     1.486   0.0213        280     61.74066
 6.51    648.5031  21.7868     320.1056     83.8029 -87.54     0.953     0.732   0.1892        281     55.76482
 4.30    643.4164  20.3169     1239.485    165.1923  71.41     1.432     1.277   0.0524        282     59.81509
 3.66    640.9592  20.8675      746.447    220.0922  62.79     1.825     1.460   0.0890        283     61.19668
 3.85    635.9503  18.4789      6736.48    870.8044 -55.63     2.583     2.127   0.0148        284     91.97697
 5.85    636.3670  21.4117     452.1692    713.2728 -27.80     1.103     0.927   0.1457        285     60.64782
 3.50    633.0000  23.3565     75.40442    397.9916   0.00     0.836     0.289   0.2203        286     15.29917
 6.60    630.1810  22.5821     153.8788    108.0266 -55.50     0.816     0.513   0.3081        287     43.65724
 5.60    628.0944  20.9036     722.0529   1540.2069  27.17     1.293     1.121   0.1029        288     68.41997
 6.67    625.7720  21.3565     475.7639    983.4990  -2.17     1.251     0.924   0.1664        289     72.91509
 8.22   1589.7009  21.6213     372.7994   1461.0107 -10.63     0.741     0.680   0.1742        290     59.81509
 4.10    615.7365  20.6507     911.4083    191.4495  60.91     1.785     1.428   0.0806        291     67.68293
 4.21    611.5716  19.1605     3595.862    588.2308  14.18     2.596     1.592   0.0265        292      87.6966
 6.55    613.6649  23.0195     102.8452   1535.3394  44.82     0.581     0.331   0.3173        293     30.04697
 8.65    607.5215  22.2682     205.4523    297.4977  43.76     0.505     0.494   0.2287        294     43.27259
 8.53    606.5175  22.1979     219.2047   1381.4932  43.97     0.503     0.496   0.2086        295     42.09755
 4.22    602.5912  19.9602     1721.524   1579.9037  -8.84     1.521     1.361   0.0395        296     62.54776
 7.83    597.8693  21.6200     373.2349    442.1408 -44.85     0.751     0.569   0.1569        297     53.93597
 3.50    595.8198  20.8692     745.2834   1054.3407 -89.55     1.270     1.154   0.0642        298     44.03853
 8.08    597.5260  21.8628     298.4475     31.0235   1.89     0.785     0.499   0.1894        299     52.04288
 7.67    588.0042  21.9788     268.2104   1536.5018 -87.74     0.820     0.499   0.2041        300     50.41104
 6.55   1589.6970  23.2602     82.40039    264.6829 -44.20     0.557     0.343   0.3960        301     30.04697
 6.04   1584.6581  21.6795     353.3561    908.5366  57.03     1.067     0.804   0.1759        302     57.24426
 3.50   1571.6305  21.3752     467.6414    429.0382 -57.41     1.151     1.002   0.0911        303     39.21911
 5.85   1546.6389  22.1187     235.7881    436.8634 -57.07     1.089     0.581   0.2212        304     48.03341
 3.55   1567.0079  18.6620     5691.073     19.0851 -80.60     1.626     1.566   0.0110        305     57.53558
 3.50   1534.9148  18.2018     8694.883    875.2714 -86.94     1.850     1.642   0.0081        306     64.56925
 3.50   1560.6195  18.8264     4891.417    623.5128 -74.75     1.716     1.514   0.0128        307     57.53558
 7.47   1509.5585  22.1214      235.194    525.2308 -20.86     0.742     0.450   0.2085        308     45.16311
 4.28   1535.1509  21.3145     494.5273    112.9040  60.82     1.146     0.989   0.1024        309     46.62035
 3.50   1559.6727  18.3334     7702.673   1361.5829 -68.37     1.745     1.591   0.0085        310     60.09395
 7.41   1568.4788  22.5738     155.0526   1528.5316  46.68     0.504     0.495   0.2687        311     38.35705
 5.40   1556.2274  21.4437     439.0582    308.6033  31.79     1.065     0.888   0.1334        312     53.93597
 5.45   1562.3768  22.7133     136.3528    285.8193 -19.32     0.739     0.443   0.2523        313     31.67229
 5.92   1559.8711  21.9698     270.4333     26.1974 -27.26     0.987     0.751   0.2077        314     51.72063
 3.91   1522.8324  20.3794     1170.147   1514.5532  76.41     1.408     1.298   0.0506        315      54.5524
 5.99   1546.0128  21.7623     327.4092   1236.4098   1.62     1.047     0.789   0.1840        316      55.4642
 4.17   1545.7317  20.0609     1569.096    664.4902  76.88     1.358     1.332   0.0398        317     57.53558
 4.31   1527.1224  21.9037     287.4316    958.2054  77.88     1.046     0.813   0.1575        318     41.69851
 5.97   1510.2976  21.4199     448.7972    983.0817  57.52     1.084     0.991   0.1526        319     63.08009
 5.66   1513.0079  20.6014     953.7628    593.7835 -44.31     1.784     1.136   0.0947        320      83.1963
 7.31   1510.9725  21.8546     300.7108      7.9879  41.77     0.884     0.532   0.1879        321     52.04288
 5.50   1520.9092  20.2379     1332.974    586.8411 -77.18     1.827     1.383   0.0728        322     89.39594
 4.05   1524.7307  21.0618     624.1243    802.9252  78.91     1.265     1.088   0.0854        323      49.0665
 3.50   1510.4840  15.8460      76139.2   1281.4663 -71.78     2.090     1.989   0.0010        324     72.91509
 6.43   1455.5348  20.2258     1347.996    128.6390  49.32     2.044     1.616   0.0965        325     119.7699
 3.50   1461.9943  21.5281     406.2021    597.6018 -69.09     1.138     0.918   0.0953        326     35.64599
 3.50   1504.7002  21.6226     372.3516   1360.6443  18.15     1.332     1.079   0.1273        327     43.65724
 4.06   1454.4182  21.6563     360.9639    455.0775   2.44     1.339     0.957   0.1445        328     48.03341
 5.87   1460.4852  20.9718     678.0888    123.4849 -64.05     1.313     1.249   0.0825        329     51.49649
 4.36   1474.1536  22.7014     137.8597    567.3289 -76.98     1.079     0.413   0.2323        330      29.4853
 5.17   1455.2758  20.2308     1341.715    717.1210 -62.49     1.426     1.334   0.0590        331     72.91509
 3.50   1482.1497  21.8732     295.6147   1409.0476 -56.73     1.059     0.797   0.1220        332     33.21818
 5.07   1473.2968  19.5061     2615.615   1562.7554  43.58     2.024     1.916   0.0427        333     102.7927
 8.54   1468.3329  20.9355     701.1362     54.2892  21.93     1.248     0.802   0.1349        334      87.1228
 6.21   1436.0176  21.7249     338.8651    485.3335  -2.64     1.035     0.841   0.1908        335     59.53492
 6.05   1480.9836  21.6781     353.7992     23.2866 -31.67     1.305     0.714   0.1845        336     60.09395
 6.91   1419.5212  21.8863     292.0605   1083.4147   0.10     1.073     0.500   0.1874        337     50.41104
 5.53   1464.4952  21.3584     474.9585    881.9339   6.55     1.083     0.924   0.1295        338     56.65712
 4.12   1361.3853  21.0264     644.8467    520.9531 -63.86     1.183     1.102   0.0826        339      49.0665
 8.38   1458.6672  23.0715     98.04187    502.6410 -44.03     0.588     0.326   0.4151        340     37.47516
 3.50   1461.5692  16.6254     37138.21    250.7218 -72.86     2.031     1.908   0.0021        341     70.34767
 7.53   1460.1299  22.1742     224.0385   1250.1620  43.51     0.759     0.574   0.2444        342     50.41104
 3.50   1466.0754  15.6388     92143.27    533.4296  78.83     2.383     2.032   0.0009        343     78.86337
 4.71   1417.7998  19.6896     2208.812    690.6979  88.17     2.543     2.114   0.0553        344     112.5741
 3.50   1398.4067  18.2278     8489.616    898.8309 -75.49     1.882     1.722   0.0086        345      67.4849
 5.23   1413.1299  20.2962     1263.287    965.9013 -51.24     1.554     1.329   0.0453        346     52.65055
 5.26   1439.5889  21.3711     469.4275    959.6401 -79.99     1.205     0.936   0.1331        347     57.53558
 5.85   1434.0284  21.8412     304.4557    890.3381  17.39     1.038     0.719   0.1879        348     52.68147
 5.18    862.9485  22.2361     211.6248    655.0118 -46.53     0.819     0.758   0.2160        349     42.09755
 7.64   1406.3228  22.7501     131.8102    183.3160 -45.35     0.565     0.340   0.2859        350     34.69526
 3.50   1416.1143  16.6338     36854.71    953.2365 -69.51     1.969     1.867   0.0020        351     68.17517
 6.47   1393.4110  22.4817     168.7733    778.1905  18.91     0.753     0.452   0.2411        352     37.47516
 7.33   1425.8359  22.2775     203.7041    837.5905  11.03     0.877     0.594   0.2859        353      53.6251
 6.51   1410.5024  21.6099     376.7325   1507.0568 -85.46     1.069     0.775   0.1748        354     60.64782
 3.50   1420.0104  19.2319     3367.124   1049.5074 -79.68     1.656     1.515   0.0183        355     56.65712
 6.66   1404.2319  20.7214     853.9778    753.3615 -59.97     1.547     1.113   0.1139        356     89.58277
 3.88   1376.7153  22.2983     199.8313    522.7999  53.61     1.057     0.521   0.1602        357      29.4853
 7.52   1388.5931  22.1973     219.3307    402.7344  18.63     0.742     0.454   0.2273        358     45.89751
 8.42   1371.8041  21.8966     289.3201   1047.3953 -70.69     0.752     0.446   0.1855        359     49.40607
 6.97   1392.8794  22.1171     236.1285    213.2036  60.90     1.165     0.431   0.2349        360     51.07003
 5.54   1381.9500  22.2166     215.4591    940.0408 -49.56     0.805     0.768   0.2313        361     45.89751
 3.54   1306.6525  20.7971     796.4636    723.4753 -75.39     2.048     1.302   0.0819        362     60.09395
 6.62   1368.2230  22.4583     172.4622   1364.4091  71.70     0.763     0.452   0.2549        363      40.4778
 3.50   1367.0601  17.2991     19969.58   1438.6954 -69.75     1.877     1.784   0.0036        364     65.93113
 3.50   1364.6747  21.4489     436.9415   1175.2870 -34.09     1.107     1.002   0.0920        365     37.02634
 4.04    876.1050  20.7163     857.9705   1084.7075 -28.86     1.244     1.203   0.0634        366     50.07829
 5.24    864.4854  21.4660     430.1168    522.6914  24.89     1.216     1.024   0.1503        367     59.53492
 4.26    874.0328  20.7150     858.9978    845.5032 -19.13     1.869     1.214   0.0834        368     65.93113
 3.77   1371.6851  21.4920     419.9363   1249.1526  63.98     1.091     1.014   0.1025        369     39.64312
 4.59   1350.2107  20.2407     1329.535   1493.6960  22.22     1.432     1.350   0.0545        370     66.68754
 3.50   1366.5422  20.6581     905.2327    332.5728 -65.15     1.378     1.155   0.0542        371     45.16311
 5.97   1376.5374  20.8372     767.5945    567.9445 -43.59     1.566     1.417   0.1288        372     91.06358
 5.68   1364.8011  20.8908     730.5676   1493.2467 -69.63     1.288     1.042   0.0995        373     66.93777
 3.50    873.5823  18.9842       4229.8    447.6536 -63.10     1.640     1.543   0.0147        374     57.24426
 4.30    868.1310  22.2229     214.2061   1057.4645 -21.29     0.886     0.683   0.1734        375     34.20998
 3.54   1307.7341  18.8341     4856.965    133.0576 -38.68     1.657     1.569   0.0129        376     57.82543
 5.79   1325.7029  20.8969     726.4813   1202.3856  79.24     1.228     1.030   0.0997        377     66.68754
 5.47   1312.1108  20.7047     867.2357   1231.6163 -35.66     1.938     1.251   0.1098        378      87.6966
 3.54    874.6697  19.0687     3912.963     39.0317 -81.23     1.646     1.528   0.0162        379     58.40082
 6.93    879.6802  22.8754     117.4453   1222.6667 -44.37     0.571     0.337   0.2778        380     30.04697
 3.50   1248.5431  17.9704      10760.3     37.3657 -76.40     1.825     1.713   0.0064        381     63.08009
 3.50    862.3931  13.9576     433472.4   1395.4015 -52.90     3.782     3.484   0.0003        382     130.2036
 3.50   1311.6833  15.3849     116428.5    923.2286 -64.13     2.188     2.059   0.0007        383     76.05747
 4.93   1301.9756  21.0087     655.4357    941.8833 -13.25     1.170     1.086   0.0944        384     56.95144
 3.84   1275.3074  19.7263     2135.314    569.3286 -69.42     1.529     1.447   0.0301        385     59.25343
 7.19   1303.4929  22.5227     162.5203    953.5069  44.98     0.503     0.497   0.2563        386     38.35705
 8.19   1320.5138  22.6349     146.5726   1482.4796  45.51     0.506     0.493   0.3090        387     41.69851
 6.93   1259.3296  21.5271     406.5959    468.0339  43.72     1.017     0.726   0.1649        388     61.74066
 6.77   1301.0029  22.3076     198.1378   1553.9611 -45.22     0.910     0.525   0.2614        389     47.68407
 3.50   1237.1700  18.1488     9130.546    383.7987 -71.23     1.782     1.702   0.0075        390     63.08009
 3.59   1279.1519  20.1885     1395.109   1141.3660  -7.37     1.463     1.362   0.0403        391     51.72063
 3.50   1244.3210  15.8930     72913.98    569.9016 -68.57     2.097     1.978   0.0011        392     72.68543
 7.50   1268.3602  21.4475     437.5306   1312.2224  19.35     1.065     0.808   0.1758        393      70.8214
 3.50   1277.7515  19.0568     3956.092    260.1269  74.55     1.635     1.607   0.0160        394     58.40082
 6.67   1220.1958  22.3816     185.0884    903.3673  72.31     0.775     0.442   0.2375        395      40.4778
 4.79   1267.2450  20.7276     849.0717   1407.5073  67.33     1.246     1.224   0.0783        396     61.19668
 7.93   1274.4855  21.8356     306.0354    942.0164  57.63     1.016     0.613   0.2248        397     63.34458
 3.79   1270.1284  21.5009     416.5421    755.1631 -40.38     1.172     1.009   0.1108        398     42.49284
 7.35   1254.0199  21.9294     280.6906   1206.6636  89.79     0.736     0.673   0.2063        399     53.31241
 6.35   1261.3464  21.4363     442.0562   1421.6387 -45.47     1.029     0.851   0.1503        400     61.19668
 5.84   1234.3195  22.0129     259.9138   1465.1670 -66.17     0.883     0.679   0.1963        401      46.9776
 3.50   1241.7740  19.5259     2568.221    864.6569  62.22     1.620     1.452   0.0232        402     54.85802
 8.04    900.4957  22.5221     162.6173    298.5353 -47.69     0.506     0.493   0.2785        403     41.69851
 8.21   1251.7294  20.8419     764.2302   1422.2137  62.76     1.513     0.786   0.1299        404     91.43003
 4.12   1234.7330  20.8356     768.6909    710.9155 -67.00     1.333     1.114   0.0726        405     51.39637
 3.50   1229.0135  18.9292     4449.465    318.5288 -71.82     1.615     1.543   0.0138        406     56.36126
 3.50   1179.0875  18.8889     4617.662      5.8538 -83.74     1.689     1.548   0.0134        407     56.95144
 3.50   1214.1450  14.9716     170363.6   1194.3954 -60.99     2.238     2.104   0.0005        408     77.14874
 4.35   1224.6696  20.8918     729.9218    425.0283  62.52     1.317     1.205   0.0847        409     56.95144
 4.88    905.0942  22.2341     212.0172   1518.2821  77.45     1.314     0.584   0.2236        410     43.65724
 3.50   1251.3696  18.9404     4403.908    491.9989 -78.80     1.657     1.563   0.0144        411     58.40082
 5.92    888.1315  20.8881     732.4501    688.9775 -57.79     1.707     1.034   0.1197        412     80.74882
 3.50   1228.9906  17.1424     23069.07   1333.2490 -81.64     1.960     1.871   0.0032        413     68.41997
 3.50    879.8435  15.1638     142714.6    165.4467 -63.62     2.184     2.097   0.0006        414     76.49585
 7.05    973.5118  22.6099     149.9824    281.4951  44.80     0.508     0.492   0.2512        415     34.69526
 4.40    916.7213  20.9827     671.2953   1145.3708 -10.66     1.250     1.064   0.0826        416     51.07003
 6.02   1185.5048  20.9772     674.7009    283.8190   3.59     1.112     0.978   0.1045        417     64.90888
 3.50   1238.4437  18.8369     4844.214   1245.6625 -68.69     1.644     1.528   0.0128        418     56.95144
 6.96   1198.6920  21.4624     431.5747    463.6628 -82.32     1.183     0.695   0.1640        419     65.16595
 4.86    921.3797  21.7087      343.957    224.6592  48.63     1.091     0.925   0.1623        420     51.39637
 3.50    919.1842  16.0430     63504.46    619.8223 -71.50     2.027     1.911   0.0012        421     70.58493
 4.03    922.7933  20.0326     1610.543    505.8558 -66.61     1.413     1.387   0.0388        422     57.53558
 4.20    915.4302  19.3937     2900.727    936.0518  75.53     2.644     1.808   0.0351        423     93.77708
 6.91    921.2067  21.8673     297.2152    853.6528 -71.79     0.953     0.662   0.2070        424     56.65712
 4.64   1178.5764  19.9638     1715.811   1464.2826   2.64     3.073     1.472   0.0640        425     101.1532
 3.50   1197.8568  22.7878      127.319    610.2325 -45.66     0.700     0.552   0.1846        426     21.63629
 5.57    927.3735  21.8661     297.5599    855.5706 -47.75     1.059     0.862   0.1980        427     54.24506
 4.65   1203.3785  20.9490     692.4393   1349.1725 -80.47     1.240     1.074   0.0856        428      54.5524
 4.62   1205.8745  21.1029     600.9426    116.8624  43.22     1.186     1.112   0.1002        429      55.4642
 5.49   1189.1964  20.7727     814.5743   1456.5712  36.05     1.889     1.326   0.1179        430     88.45589
 3.50   1193.7871  17.3468     19111.69   1030.6880 -87.23     1.931     1.798   0.0038        431     66.18423
 5.87   1160.6014  21.8750     295.1135   1195.9904  62.62     1.027     0.652   0.1831        432     49.74331
 7.44   1187.9056  20.6907     878.4558    585.2480  36.51     1.464     1.043   0.1166        433     94.31042
 6.56    935.9239  21.0793     614.1563    678.9801   6.73     1.478     1.299   0.1024        434     57.92448
 3.50    932.5441  18.7453     5270.667    944.0935 -74.94     4.527     2.298   0.0238        435     115.3614
 6.34   1153.0000  22.8578     119.3678    542.0130   0.00     0.863     0.289   0.2833        436     31.13995
 6.78    929.8692  22.0927     241.4967    111.2704 -35.54     1.102     0.521   0.2369        437     52.68147
 5.26   1175.3789  21.6040     378.7736   1044.8125 -21.05     1.156     0.871   0.1555        438     54.24506
 8.45    936.6628  22.4147       179.53    765.6741 -45.50     0.576     0.334   0.2267        439     37.47516
 6.21   1159.4818  22.3710     186.8978     98.0129  -1.74     0.794     0.499   0.2304        440     39.64312
 5.30   1166.9652  22.3390     192.4857    432.2736 -88.17     0.742     0.657   0.2089        441     37.02634
 3.51    938.6542  21.9005     288.2783    622.0769  23.53     1.046     0.875   0.1270        442     33.71773
 6.66    934.3132  22.1903     220.7493   1019.9688  -9.49     0.725     0.651   0.2294        443     46.62035
 5.97    933.1538  22.2601     207.0007    530.1095 -39.52     0.831     0.674   0.2369        444     45.16311
 3.59    936.8080  18.8735     4683.638    841.7275 -80.24     1.594     1.545   0.0133        445     57.53558
 7.84    972.3481  21.6148     375.0291   1261.0458  24.17     1.700     0.572   0.2314        446     79.91633
 3.50   1154.0920  18.5392     6372.589    194.7910 -82.67     1.735     1.608   0.0102        447     60.09395
 5.77   1147.7938  22.0335     255.0352    390.1435  39.32     0.810     0.682   0.1891        448     44.41655
 3.50    942.7796  16.6320     36913.57    689.4196 -82.63     1.966     1.886   0.0020        449     69.14915
 3.50   1139.2327  21.9242     282.0553    311.5732 -14.17     0.981     0.960   0.1317        450     34.20998
 3.50   1130.4121  16.8495     30212.97    620.1830 -77.28     1.953     1.841   0.0025        451     68.17517
 7.77   1132.6074  22.5190      163.084    292.1523 -19.72     0.728     0.448   0.3056        452     45.89751
 3.86   1074.6722  20.1578     1435.038    141.8901  73.51     1.817     1.611   0.0520        453     68.66389
 3.50   1029.2568  19.8773     1858.136    309.9079  87.69     1.506     1.360   0.0298        454     51.07003
 4.18   1124.9321  18.5027      6590.31     68.4731  51.88     5.250     2.392   0.0251        455     152.1149
 5.42   1123.9146  21.2220     538.4951    766.8862  86.58     1.225     0.827   0.1119        456      55.4642
 3.53   1015.9736  22.2026       218.26    820.5222 -26.94     0.998     0.661   0.1410        457     28.32856
 7.38   1031.2301  22.3727     186.6035   1367.2107  73.67     0.848     0.345   0.2403        458     41.29562
 3.50   1095.0286  18.0782     9743.292     15.6405 -74.36     1.809     1.689   0.0071        459     63.34458
 3.50   1100.1575  20.5973     957.3533   1451.7600 -87.06     1.335     1.302   0.0533        460      46.9776
 3.50   1110.9348  19.1653     3579.808   1267.3542 -53.56     1.628     1.540   0.0173        461     56.95144
 3.50   1057.9159  18.2671     8187.443    239.0446 -89.28     1.815     1.614   0.0082        462     61.46927
 5.58   1085.2710  22.7852     127.6216    553.7729 -72.17     0.831     0.350   0.2650        463     31.13995
 6.15   1081.9420  21.9559     273.9178   1121.9431  70.76     0.796     0.786   0.1904        464     48.03341
 5.67   1078.0057  21.7079     344.2252    854.9566 -58.76     1.714     0.723   0.2056        465     65.16595
 4.39   1085.1819  21.9474     276.0844    386.2175 -88.27     1.155     0.765   0.1671        466     42.49284
 5.38   1080.6115  21.9453     276.6061    306.4988 -75.20     1.019     0.733   0.1899        467     48.38022
 3.50   1090.2322  18.3369     7678.184    791.8683  77.65     1.735     1.668   0.0085        468     60.37152
 6.54    969.5267  22.6883     139.5377   1019.4875 -43.79     0.506     0.493   0.2546        469       32.711
 6.34   1091.0231  22.6613     143.0422   1427.7740  89.07     0.703     0.418   0.2706        470     35.64599
 5.56   1067.3313  22.3254     194.9209   1184.4683  51.33     1.399     0.465   0.2516        471     45.16311
 3.91   1070.1584  20.2020     1377.859     62.2485  24.25     1.393     1.296   0.0432        472     54.85802
 4.07   1027.4890  18.4331     7026.601    607.2560 -18.76     2.941     2.238   0.0164        473     106.3108
 3.80   1042.8846  18.7628     5186.602    423.8866 -42.61     1.752     1.605   0.0139        474     66.18423
 5.23   1064.3309  21.8135     312.3313    531.7479  33.18     1.029     0.908   0.1821        475     52.36315
 4.96   1063.5302  20.6094     946.7368    862.0614 -58.01     1.458     1.242   0.0793        476     69.14915
 4.02   1040.8853  19.9097      1803.46     22.4731  -8.67     1.448     1.403   0.0353        477      58.6864
 7.19   1054.2803  21.5842     385.7537   1320.1046 -69.47     0.947     0.678   0.1668        478     59.25343
 4.46   1011.2761  20.4110     1136.613    374.0196   5.61     1.408     1.367   0.0613        479      64.1315
 4.07   1050.3533  21.2051     546.9489    312.3636 -17.60     1.447     1.126   0.1065        480      53.6251
 6.41   1049.1913  22.1525     228.5498    226.7028  59.86     0.859     0.616   0.2266        481     47.68407
 4.67   1047.5114  18.5031     6587.812   1382.1768 -66.89     3.633     2.561   0.0240        482     145.6007
 3.50   1006.4554  19.2818     3215.624   1352.7764 -73.64     1.613     1.464   0.0188        483     55.76482
 3.80   1040.3287  19.5330     2551.566   1083.9568 -85.21     1.551     1.422   0.0249        484     58.40082
 3.55   1030.5763  19.5830      2436.65    765.6879  66.42     1.622     1.460   0.0250        485     56.06383
 3.50   1036.8967  20.1010     1512.151    207.5527 -77.78     1.439     1.289   0.0347        486     48.38022
 7.70   1043.1964  21.9591     273.1331   1597.0045 -58.67     0.812     0.504   0.1924        487     48.38022
 3.50   1021.1419  18.7590     5204.632    105.8904 -72.26     1.699     1.569   0.0122        488      58.6864
 6.18   1035.4849  21.6891     350.2271    621.7720  35.42     1.396     0.666   0.1914        489     61.74066
 6.43   1030.0685  21.1614     569.4474    847.4033 -65.74     1.627     0.983   0.1579        490     82.79341
 4.29   1020.0123  20.1675     1422.305    502.1168 -87.00     1.466     1.287   0.0467        491     61.19668
 6.03   1009.3141  22.9897      105.707    185.7090  46.43     0.550     0.345   0.2849        492      27.7321
 5.16    984.0339  21.2385     530.3929    173.4649  83.32     1.164     1.055   0.1178        493     57.53558
 3.50   1001.3738  17.0487     25149.25    997.5110 -79.83     1.961     1.820   0.0029        494     67.43546
 5.70   1002.4895  22.8013     125.7423    292.4987 -44.70     0.505     0.495   0.2447        495     28.32856
 5.12    999.5514  21.3580      475.097   1446.3088  78.90     1.041     1.005   0.1219        496     53.31241
 3.50    995.1923  18.1969     8734.616    144.4737 -66.76     1.784     1.650   0.0076        497     61.19668
 8.39    991.9846  21.8579     299.8193   1076.9858 -46.45     0.908     0.527   0.2187        498     60.37152
