#   1 KRON_RADIUS            Kron apertures in units of A or B                         
#   2 Y_IMAGE                Object position along y                                    [pixel]
#   3 MAG_BEST               Best of MAG_AUTO and MAG_ISOCOR                            [mag]
#   4 FLUX_BEST              Best of FLUX_AUTO and FLUX_ISOCOR                          [count]
#   5 X_IMAGE                Object position along x                                    [pixel]
#   6 THETA_IMAGE            Position angle (CCW/x)                                     [deg]
#   7 A_IMAGE                Profile RMS along major axis                               [pixel]
#   8 B_IMAGE                Profile RMS along minor axis                               [pixel]
#   9 MAGERR_BEST            RMS error for MAG_BEST                                     [mag]
#  10 NUMBER                 Running object number                                     
#  11 FLUXERR_BEST           RMS error for BEST flux                                    [count]
 4.06     54.7854  16.4435     43914.41     63.6141  10.86     5.365     4.865   0.0050          1     201.5104
 4.05     18.2135  18.6049     5998.522    984.9620 -89.85     4.237     2.095   0.0212          2     116.8546
 4.10     19.4714  19.1069      3777.64     91.2174 -50.22     1.811     1.786   0.0205          3      71.2709
 3.50     16.2576  18.0600     9908.686   1445.6405  10.92     2.069     1.951   0.0075          4     68.27317
 5.88      5.8206  21.8108     313.0895    145.2245  -0.38     1.171     0.700   0.1779          5     51.27777
 3.50     61.4063  16.3867     46272.46   1078.3906  60.70     2.429     2.331   0.0019          6     80.15064
 7.15     11.4045  22.7429     132.6925   1183.2152  19.09     0.760     0.448   0.3257          7     39.79474
 6.20     19.1504  21.3994     457.3475    384.5094   6.20     1.294     0.940   0.1563          8     65.82211
 6.18     26.2150  20.4772     1069.383    366.8643  22.57     1.520     1.277   0.0846          9     83.25911
 8.14     25.4828  21.2632     518.4623    382.6798  34.64     1.089     0.824   0.1553         10     74.14753
 6.45     36.5190  21.2788     511.0732   1110.6578 -49.38     1.297     0.966   0.1483         11     69.78813
 6.19     34.8937  21.0066     656.7109    326.7797  -6.17     1.759     1.173   0.1424         12     86.08225
 3.50     81.5333  16.4209     44838.73    537.4374  -8.76     2.426     2.341   0.0019         13     80.15064
 6.56     40.7101  22.0956     240.8672   1170.5583  40.85     1.270     0.507   0.2312         14     51.27777
 5.84     40.0144  22.3060     198.4198   1521.2733  85.98     0.741     0.661   0.2239         15     40.90551
 5.97     44.3194  21.8209     310.1873    915.1635 -57.45     1.037     0.830   0.1904         16     54.38829
 8.83     45.6943  21.9950     264.2521    440.3448  43.14     0.570     0.337   0.1556         17     37.87114
 3.86     76.6940  20.0304     1613.812    128.1458 -36.54     1.719     1.565   0.0413         18     61.35826
 6.39     91.3040  20.1175     1489.374    376.7011  59.93     2.277     1.590   0.0860         19     117.9997
 5.62     84.3886  21.3718     469.1313    421.1944 -71.75     1.543     1.097   0.1640         20     70.85042
 3.50    123.3941  15.9909      66624.7    788.9817   1.93     2.491     2.407   0.0013         21     82.53824
 4.29     98.1545  19.5785     2446.714     56.0174  -2.94     1.876     1.626   0.0320         22     72.10451
 6.22     99.8760  20.8488     759.4427    452.8296  11.32     1.469     1.252   0.1165         23     81.44497
 5.77     92.9685  22.0460     252.1201    495.7600  -1.84     0.890     0.757   0.1970         24     45.73375
 7.44    118.7651  22.0388     253.7947    990.2153  56.24     0.770     0.712   0.2280         25     53.27821
 7.94    118.3204  22.5365      160.478    415.3350 -44.33     0.572     0.336   0.2340         26     34.57146
 3.50    163.8909  16.6171     37424.28   1468.2533 -12.36     2.297     2.242   0.0022         27      76.5272
 8.54    132.4837  21.8745     295.2595    418.0073   0.90     0.791     0.500   0.1886         28     51.27777
 3.62    171.7659  18.2351      8432.44    877.2239 -65.04     2.104     2.045   0.0094         29     73.13316
 5.02    152.7571  22.7889     127.1841   1280.5729  70.56     0.724     0.458   0.2334         30     27.33114
 3.53    167.9653  21.0182     649.6814    104.0224 -78.63     1.477     1.352   0.0807         31     48.27642
 6.26    166.7164  20.5190     1028.929   1445.8735  25.87     1.481     1.385   0.0916         32     86.77369
 6.54    161.5322  22.8948     115.3698    634.5322  45.00     0.509     0.489   0.2911         33     30.92166
 6.44    170.4764  21.6294     370.0237   1368.4977   1.76     0.962     0.894   0.1728         34     58.87308
 6.49    170.4273  22.6540     144.0183    651.2307  19.56     0.769     0.448   0.2703         35     35.84446
 7.24    181.4357  21.1847     557.3643    575.3188  32.57     1.271     0.859   0.1429         36     73.33715
 5.24    194.1731  20.4702     1076.236   1350.5505 -52.42     1.469     1.346   0.0721         37     71.48021
 6.58    188.1913  21.4022     456.1799   1354.9642  38.80     1.031     0.844   0.1420         38     59.62951
 4.47    212.4319  18.8224     4909.677    827.3854 -12.54     4.254     2.183   0.0291         39     131.7576
 4.70    208.1951  19.8500     1905.542    548.9749 -54.46     1.677     1.562   0.0423         40     74.14753
 3.50    213.7668  20.0120     1641.307   1306.0121  -5.55     1.672     1.540   0.0358         41      54.1129
 5.56    232.0003  18.7985     5018.733    561.9341 -29.94     3.527     3.152   0.0389         42     179.5554
 3.50    267.4318  15.7213     85407.44     67.5887   4.05     2.519     2.455   0.0011         43     85.03456
 5.22    212.3623  20.9965     662.8021    684.2392 -21.57     1.588     1.414   0.1244         44     75.93927
 3.50    261.3217  15.3325     122175.5    997.3779 -21.97     2.507     2.488   0.0008         45     85.21007
 3.57    225.6275  19.8827     1848.934   1226.0277  56.39     1.639     1.513   0.0323         46     54.93492
 4.82    224.2253  20.8392     766.1893    774.7047 -64.76     1.485     1.273   0.0910         47     64.21365
 5.37    245.7519  20.0355     1606.204    112.9574 -84.19     2.268     1.820   0.0712         48      105.287
 4.73    256.7946  18.9831     4234.057    612.8154 -30.55     2.748     2.239   0.0292         49     113.7449
 6.37    240.4774  20.7540     828.7078    838.2289  -1.00     1.566     1.476   0.1226         50     93.56676
 6.42    253.0003  21.3651      472.011   1372.7172 -71.85     1.388     1.020   0.1093         51      47.5113
 7.14    251.7136  21.5685     391.3829    107.6560 -47.45     1.285     0.961   0.1384         52     49.88655
 3.50    289.1075  17.3036     19886.21   1486.3608   1.53     2.188     2.127   0.0040         53     73.54058
 7.65    254.4976  23.1732     89.27378   1352.0000  31.85     0.805     0.311   0.2629         54     21.61358
 3.60    283.4612  18.9534     4351.633   1522.2333  52.35     1.853     1.816   0.0160         55     63.98056
 8.02    266.9816  22.2967     200.1364    123.0000  90.00     0.858     0.289   0.2159         56     39.79474
 6.63    272.2898  21.4194     449.0004   1273.7919   3.53     1.216     0.928   0.1657         57     68.49165
 3.50    304.5837  17.6310     14709.49    201.6434   9.84     2.209     2.162   0.0054         58     73.74345
 5.28    294.7334  20.7134     860.3027   1475.5226 -23.87     1.490     1.372   0.0646         59     51.17493
 4.40    303.5009  20.7957     797.5055    563.4193 -19.54     1.662     1.501   0.0918         60     67.39219
 3.50    323.5641  18.0650     9862.725    697.2144  48.95     2.098     2.084   0.0078         61     70.85042
 8.21    294.2909  22.3938      183.016    247.3220 -43.16     0.553     0.344   0.2051         62     34.57146
 8.21    309.9417  21.3590     474.6814     85.7309 -48.00     1.182     0.645   0.1582         63     69.14293
 5.55    322.5255  20.5557     994.7417    641.3193  77.65     1.952     1.534   0.1022         64     93.56676
 5.15    328.8730  19.7925     2009.028    595.4155 -35.20     1.939     1.713   0.0494         65      91.4675
 5.86    331.2283  21.6348     368.1904   1545.7670  43.51     1.148     0.833   0.1644         66     55.74481
 6.09    333.6950  21.3919     460.4973     93.5791  55.69     0.971     0.940   0.1346         67      57.0691
 5.25    351.3244  20.7062     866.0291     54.6837  61.37     1.405     1.282   0.0856         68     68.27317
 3.68    369.6347  18.0463      10033.8    760.9844  20.92     2.099     2.041   0.0080         69     73.74345
 3.50    396.6434  16.3154     49412.54    231.3520 -26.42     2.431     2.344   0.0018         70     80.52258
 4.58    362.7214  19.8649     1879.492   1500.1469   1.09     1.885     1.588   0.0443         71     76.72218
 6.58    362.1609  21.2429     528.2524   1033.3594 -58.97     1.241     0.995   0.1452         72     70.63924
 6.42    376.5254  20.9650     682.3496    753.3805  48.83     1.997     1.131   0.1032         73     64.86794
 5.64    381.7092  21.3685     470.5461      1.5745 -88.36     2.138     0.633   0.1217         74      52.7144
 5.73    375.3517  21.3688      470.392   1083.9893 -64.08     1.453     1.092   0.1616         75     70.00188
 6.92    371.3849  21.6613     359.3232     72.0737  -4.98     1.328     0.618   0.1810         76     59.87953
 7.68    370.4340  22.3149      196.813    209.7979 -20.41     0.757     0.448   0.2413         77     43.72983
 3.50    399.6176  18.3321      7712.03    354.4628  17.25     2.015     1.927   0.0094         78     66.94735
 3.50    398.5452  18.4648     6824.548   1461.0853  -1.85     1.953     1.880   0.0102         79     64.21365
 5.48    384.9274  21.9067     286.6364     67.2584  84.64     1.574     0.663   0.2040         80     53.83611
 5.96    376.7703  22.8669     118.3716     87.0265   1.14     0.694     0.420   0.2792         81     30.43467
 6.77    382.1244  21.5823     386.4497    125.8206 -25.56     0.976     0.759   0.1618         82     57.59029
 4.02    395.3357  20.0436     1594.245   1088.6277  16.79     1.645     1.542   0.0421         83     61.84332
 7.53    397.2801  20.8724      743.082    626.6414 -84.29     1.368     1.024   0.1263         84     86.42866
 6.06    413.7102  20.4543      1092.14      1.9376  88.84     2.794     0.912   0.0763         85     76.72218
 5.80    390.9907  22.9752     107.1351   1196.0000  90.00     0.849     0.289   0.2657         86     26.21511
 7.06    405.4550  21.1350     583.4613    526.5231  81.85     1.415     0.997   0.1516         87     81.44497
 3.50    462.6592  15.1786     140785.3    807.5481 -14.75     2.549     2.471   0.0007         88     85.73444
 3.50    439.4121  17.5403     15990.98    252.0300   6.63     2.198     2.152   0.0050         89     73.94577
 6.39    408.1780  21.7623     327.3906    281.9645  29.19     1.164     0.805   0.1961         90      59.1263
 5.73    422.2335  20.5652     986.1296    159.3221  51.63     1.823     1.388   0.0978         91      88.8157
 6.58    427.0642  21.8358     305.9601    299.6302  84.40     1.385     0.613   0.2081         92     58.61877
 7.34    419.4577  21.9331     279.7343   1204.3013  -8.30     1.015     0.481   0.1957         93     50.39614
 7.02    428.1476  21.1415     579.9823   1179.8237  43.93     1.268     1.091   0.1501         94     80.15064
 4.39    434.3699  20.3900     1158.811   1421.9888 -10.82     1.560     1.399   0.0474         95     50.58348
 8.46    424.2213  21.7102     343.5005    133.4180  71.45     0.751     0.455   0.1507         96     47.65348
 5.96    421.4902  22.5524     158.1381   1580.9540   2.68     0.778     0.499   0.2490         97     36.25886
 8.25    421.6680  22.1736     224.1598    136.3273  45.21     0.574     0.335   0.1716         98     35.42521
 7.29    425.5192  22.6367     146.3292   1063.4724  46.62     0.503     0.496   0.2691         99     36.25886
 8.39    431.2661  21.4004     456.9133    718.8472  67.24     1.078     0.508   0.1429        100     60.12851
 6.61    428.4362  21.1412     580.0967    432.8666  -1.42     3.052     0.580   0.1044        101     55.76923
 4.77    469.1457  18.3006      7938.55    850.1890  21.91     7.491     2.172   0.0255        102     186.7339
 4.02    451.8686  18.7113     5438.413     21.3246   5.41     2.100     1.955   0.0156        103     78.26448
 5.98    435.1284  20.9923     665.3905    151.0912  52.00     1.240     1.134   0.1125        104     68.92652
 5.40    441.5390  21.0512      630.259    305.5747 -51.09     1.441     1.138   0.1157        105     67.17014
 5.43    446.8850  20.5949     959.4952    122.1028  85.16     1.505     1.355   0.0848        106     74.94915
 6.24    435.6659  23.2964     79.69617    353.6778 -45.54     0.573     0.336   0.3798        107     27.87241
 3.92    459.3049  18.6652     5674.504     34.4913 -43.25     1.983     1.870   0.0140        108     73.13316
 8.32    445.0175  21.9059      286.843    654.3727 -25.27     1.075     0.452   0.2121        109     56.01217
 3.68    465.1302  19.9576     1725.711    468.4329  46.31     1.735     1.537   0.0369        110     58.61877
 5.36    454.5111  21.8445     303.5167   1533.5862   2.60     0.992     0.775   0.1613        111     45.07568
 3.85    462.4621  21.1003     602.3914   1096.4276  13.24     1.424     1.022   0.0819        112      45.4059
 6.23    454.6659  23.1967      87.3606   1224.3201  45.65     0.572     0.336   0.3465        113     27.87241
 4.18    473.5636  19.6925     2203.021    734.7416 -32.28     1.675     1.672   0.0337        114     68.27317
 7.77    463.4885  21.6930     348.9734    723.9955 -62.96     1.225     0.497   0.1879        115     60.37647
 4.28    473.0175  20.0984     1515.854    254.3179   2.68     1.614     1.461   0.0458        116     63.98056
 3.50    479.3950  19.4342     2794.534    922.8692  50.14     1.739     1.690   0.0225        117     57.84912
 4.18    479.2153  20.3960      1152.38   1276.8652  88.29     1.667     1.470   0.0599        118     63.51184
 6.15    468.1647  22.5096     164.5048   1198.3262 -25.50     0.748     0.647   0.2748        119     41.62955
 4.99    489.4695  20.9210     710.5446    839.3799 -85.63     2.556     0.978   0.1179        120     77.11064
 5.00    497.6219  19.5204     2581.281     82.7204 -14.39     2.586     2.443   0.0513        121     121.8614
 4.48    497.1443  19.6564     2277.488   1186.5587 -19.24     2.871     2.197   0.0519        122     108.7766
 5.27    477.6234  22.0369      254.238   1167.6362 -32.52     1.409     0.553   0.1925        123     45.07568
 3.50    485.5691  20.3580     1193.487   1070.7618 -13.29     1.529     1.376   0.0450        124     49.49881
 3.50    480.5318  22.3640     188.1018    682.5682 -19.27     0.922     0.768   0.1700        125     29.43654
 4.19    532.4379  17.6784     14081.81    518.7012  17.05     4.773     2.905   0.0095        126     123.4961
 5.92    483.2268  22.7026     137.7115   1309.2524  17.63     0.842     0.349   0.2400        127     30.43467
 7.04    490.9982  22.6861     139.8119    424.4974  57.39     0.783     0.319   0.2617        128     33.69609
 4.88    505.6880  20.3554     1196.333    762.6530  29.68     1.866     1.696   0.0767        129     84.50584
 6.07    499.2487  21.6681     357.0848    366.5008  48.61     1.260     0.822   0.1821        130     59.87953
 3.50    503.6251  21.1169     593.2792    863.6788  17.99     1.349     1.193   0.0775        131     42.34122
 4.09    516.8408  19.2872     3199.887   1461.1042  25.64     3.620     1.834   0.0348        132     102.4098
 6.42    511.4173  20.4877     1059.068    164.7969  15.76     2.143     1.304   0.1072        133     104.5751
 3.50    504.0078  22.7857     127.5563    442.7247 -86.66     0.742     0.697   0.2029        134     23.82674
 3.88    515.1553  20.9169     713.2787   1179.1432 -11.58     1.351     1.290   0.0758        135     49.79971
 3.70    520.8367  21.3182     492.8778    642.2778   1.63     1.390     1.164   0.1008        136     45.73375
 7.78    522.2990  21.9920     264.9821    854.1040 -68.91     0.955     0.691   0.2495        137     60.86934
 6.15    519.8758  22.0628     248.2488   1519.3197  20.54     0.920     0.674   0.2071        138     47.33893
 3.50    541.7062  20.0765     1546.695    999.6561 -28.16     1.600     1.510   0.0364        139      51.8572
 5.95    537.3939  21.5100     413.0502    404.2004  25.92     1.629     0.795   0.1731        140     65.82211
 3.50    560.4191  19.6608      2268.22   1041.6516  18.47     1.867     1.613   0.0283        141      59.1263
 4.94    572.7739  19.9561     1728.081     45.8521  54.85     2.131     1.762   0.0586        142     93.24687
 3.50    573.2246  20.0512     1583.195   1448.4399  29.55     2.441     1.841   0.0495        143     72.10451
 3.56    583.6990  18.1052     9503.973    319.1047  10.28     2.100     2.028   0.0081        144     70.85042
 3.50    582.1724  18.1111     9452.537    144.8971   4.15     2.088     1.978   0.0080        145     69.57373
 6.41    557.7811  22.5427     159.5599    778.6027  72.66     0.764     0.454   0.2440        146     35.84446
 4.04    598.1440  18.5667     6213.509    782.6210 -52.42     3.563     3.261   0.0233        147     133.2236
 5.76    566.2109  21.3619     473.4124    139.6721 -56.27     1.261     1.043   0.1468        148     63.98056
 6.78    568.5834  22.7326     133.9603    633.2251 -19.07     0.738     0.455   0.3038        149     37.47458
 6.26    578.0512  21.4316      443.959   1001.7804 -28.13     1.682     0.817   0.1728        150     70.63924
 5.30    586.1544  20.8939      728.525     75.9674  -8.76     1.328     1.229   0.0978        151     65.59474
 3.95   1002.9375  19.4679      2709.14    542.3767  41.74     1.957     1.741   0.0282        152     70.42743
 4.10   1598.2117  20.8707     744.2545    654.3484  -3.12     1.918     1.218   0.0786        153     53.83611
 3.70   1595.8204  21.5193     409.5385    373.5580  36.47     1.480     1.018   0.1195        154     45.07568
 6.34   1594.4935  21.3310     487.0614   1384.2332 -29.70     1.436     0.913   0.1556        155     69.78813
 4.80   1586.2162  20.3626     1188.409   1108.5291  10.82     1.709     1.419   0.0663        156     72.51772
 4.54   1567.9301  19.6499     2291.167     21.5654   3.80     1.823     1.751   0.0370        157     78.07336
 5.33   1567.0110  19.9973     1663.689    784.3434 -85.86     2.030     1.671   0.0620        158     94.99292
 5.50   1529.7546  22.6384     146.0934    733.4183 -70.72     0.745     0.453   0.2334        159     31.40109
 6.53   1516.6896  21.0480     632.0991   1546.3409 -54.01     1.328     1.063   0.1288        160     74.94915
 3.50   1508.4398  16.8126     31257.42    269.0288   0.55     2.425     2.347   0.0028        161     81.81102
 3.50    878.8604  21.5184     409.8723    960.9188 -38.71     1.204     1.126   0.1054        162     39.79474
 6.82    880.5679  22.3669     187.6002    670.7686  20.31     0.733     0.453   0.2169        163     37.47458
 8.15    878.4954  22.0811      244.097    542.0081   1.12     0.795     0.500   0.2255        164     50.69172
 3.76    870.8542  19.5677     2471.326   1103.3297 -62.93     2.030     2.002   0.0322        165     73.33715
 4.19    868.9675  20.6145     942.3175    939.8438  48.58     1.862     1.435   0.0769        166     66.72382
 6.09    870.7626  22.4830     168.5779    643.2283 -45.21     0.935     0.438   0.2440        167     37.87114
 7.86    868.9410  22.7440     132.5518    454.3015  62.52     0.908     0.211   0.2797        168     34.13659
 3.50    861.9903  22.8149     124.1742   1554.1732 -54.13     0.917     0.472   0.2028        169     23.19124
 5.46    859.8583  21.4080     453.7165   1339.5820 -39.58     1.325     0.950   0.0970        170     40.54538
 8.49    857.5150  22.6127     149.5988    545.0230  31.94     0.801     0.312   0.2861        171     39.41753
 8.31    850.6460  22.3843     184.6285    363.3300  45.93     0.585     0.329   0.2084        172     35.42521
 3.50    845.9612  21.2906     505.5609   1063.7421 -67.28     1.311     1.128   0.0910        173     42.34122
 3.50    844.6611  20.4982     1048.824   1106.0945  26.42     1.757     1.491   0.0563        174     54.38829
 4.44    837.9795  20.1746     1413.039    298.8437  12.85     1.630     1.534   0.0520        175     67.61351
 6.13    838.5260  22.1998     218.8245   1520.5083  45.37     1.021     0.596   0.2334        176     47.02227
 5.37    836.8230  21.9407     277.7875    818.9592  62.38     0.944     0.770   0.1749        177     44.74301
 3.62    824.2859  18.5314     6418.581    654.3231  45.13     2.096     1.990   0.0121        178     71.68891
 6.99    820.6904  23.1080     94.79944    779.6790 -44.39     0.561     0.341   0.3314        179     28.92456
 7.22    817.8287  21.8880     291.6096    878.2869 -18.00     1.042     0.570   0.2005        180     53.83611
 3.50    804.4239  18.6781     5607.231   1378.5775  24.08     1.936     1.900   0.0127        181     65.82211
 4.93    809.3416  23.2457     83.50903    127.3259 -45.67     0.578     0.333   0.2462        182     18.93557
 3.50    799.8787  17.4640     17155.04    695.5512  86.21     2.757     2.179   0.0053        183     83.25911
 3.58    802.0164  19.4620     2723.958     41.0132  17.44     1.831     1.771   0.0253        184     63.51184
 7.78    796.0267  21.4967     418.1425    295.5872 -68.21     1.214     0.528   0.1555        185     59.87953
 3.87    775.1727  19.4951     2642.125   1427.3771 -86.22     2.914     2.025   0.0376        186      91.4675
 6.20    768.8491  21.5759     388.7122    140.4927 -79.69     1.337     0.879   0.1807        187     64.67728
 7.79    755.8050  21.4350     442.5913    193.6100  79.93     1.782     0.711   0.2087        188     85.03456
 7.71    756.4966  22.4130     179.8042   1342.5267  47.36     0.504     0.495   0.2358        189     39.03668
 4.11    744.2446  20.1319     1469.674    556.2840 -43.37     1.635     1.517   0.0466        190     63.03962
 3.66    739.4138  21.2722     514.1676   1157.9685  25.22     1.297     1.181   0.0909        191     43.04113
 5.24    737.5421  21.0447     634.0203    649.6644  80.76     1.432     1.312   0.1188        192     69.35867
 3.50    727.9818  15.9842     67034.81    848.3533  27.94     2.439     2.389   0.0013        193     82.35703
 3.56    728.8088  20.6226      935.326   1178.1919  49.30     1.448     1.410   0.0571        194     49.19606
 5.63    722.7590  21.5493     398.3541   1395.0338  -6.53     1.256     0.933   0.1612        195      59.1263
 4.08    717.3167  20.1749     1412.605    808.4107  61.40     1.710     1.557   0.0495        196     64.44588
 3.78    710.4251  20.3825     1166.755   1163.6281   5.38     1.532     1.420   0.0496        197     53.27821
 3.78    706.0970  20.2761      1286.94   1339.0608  -8.24     1.875     1.504   0.0479        198     56.72797
 3.50    704.2918  19.6327     2327.682    952.3771  34.75     1.750     1.664   0.0271        199     58.10681
 5.81    700.5426  21.0049     657.7144    582.6079 -11.30     1.762     1.130   0.1314        200     79.58949
 4.79    692.9648  21.1170     593.2199   1213.7378  25.14     1.489     1.239   0.0930        201     50.82652
 5.19    688.7861  21.4090     453.3294   1213.9966  36.08     1.381     1.095   0.1084        202     45.24372
 6.63    693.1641  22.2931     200.8061    316.0519  11.70     0.956     0.699   0.1777        203     32.86075
 3.86    686.8881  19.8188     1961.024    644.1539  11.80     1.785     1.628   0.0356        204     64.21365
 4.72    688.8412  22.2096     216.8545    130.9188  89.98     0.907     0.746   0.1897        205     37.87114
 7.17    674.4924  22.4973     166.3673    230.4652 -55.24     0.501     0.498   0.2367        206     36.25886
 4.37    656.2733  21.1976     550.7346    870.9708 -80.68     1.445     1.068   0.1028        207      52.1445
 3.50    649.7219  15.9979     66197.08   1464.2932   7.81     2.369     2.331   0.0013        208     79.40156
 7.72    647.1572  21.7433     333.1658    653.2191 -18.86     0.953     0.671   0.1952        209     59.87953
 4.84    631.8602  21.0138      652.338    806.0596  -7.26     1.448     1.352   0.1092        210     65.59474
 4.45    624.8701  20.6222     935.6394   1581.7686  -0.44     1.487     1.293   0.0689        211     59.37844
 6.88    619.7174  21.8793     293.9486   1151.3589  34.33     1.228     0.597   0.2118        212     57.33029
 7.52    610.6086  23.1888     88.00183    946.1575 -18.98     0.761     0.445   0.5269        213     42.69261
 3.70   1543.1177  19.2800     3221.137    134.8626  13.62     1.861     1.807   0.0221        214     65.59474
 5.31    593.5084  22.9439     110.2698    882.5082  70.91     0.982     0.405   0.3319        215     33.69609
 5.07   1562.5160  20.5050     1042.299    861.0878 -75.69     1.564     1.347   0.0743        216      71.2709
 3.50   1564.8943  16.1367     58251.29    303.8436  -8.00     2.493     2.394   0.0015        217     82.89946
 3.74   1553.8457  17.0786      24464.8    681.9242 -32.53     4.766     4.085   0.0071        218      159.554
 4.26   1571.7207  19.9579     1725.207     92.3905  85.35     1.728     1.660   0.0442        219     70.21497
 7.15   1564.3650  22.7677     129.6941   1565.6927  47.41     0.579     0.331   0.2465        220     29.43654
 4.36   1546.9213  20.5489     1000.984    863.0593  41.04     2.299     1.275   0.0782        221     72.10451
 7.63   1576.4641  21.6789     353.5374   1491.3174  89.38     1.251     0.465   0.1712        222     55.74481
 3.50   1559.3071  16.1410     58023.88    487.3318  -7.88     2.552     2.462   0.0016        223     84.85869
 6.09   1552.6818  21.2061     546.4514   1221.4905 -81.11     1.347     1.127   0.1445        224     72.72344
 4.39   1543.8602  19.5781     2447.707    654.2137  83.24     1.807     1.722   0.0333        225     74.94915
 7.54   1536.9376  21.6496     363.2057   1429.6595 -25.77     1.278     0.620   0.1920        226     64.21365
 5.26   1491.4724  23.1873     88.12158   1494.5192 -44.31     0.508     0.491   0.3300        227     26.77894
 7.04   1534.2606  21.7771     322.9546    414.5703  -1.92     1.290     0.650   0.2104        228     62.56385
 6.03   1521.3392  21.7984     316.6958   1100.1757 -40.25     1.603     0.651   0.2053        229     59.87953
 7.47   1524.0001  22.4359     176.0576     12.4902 -58.10     0.803     0.311   0.2237        230     36.25886
 7.92   1505.0269  22.0699     246.6365   1096.0140 -88.76     0.627     0.613   0.1999        231      45.4059
 3.50   1516.1572  18.3512     7577.052    392.2966   2.53     2.134     1.955   0.0099        232     68.92652
 4.57   1515.6066  21.7507     330.9047    483.5974 -43.91     1.128     0.919   0.1501        233     45.73375
 4.04   1505.4595  20.8050     790.6655    723.2294 -27.09     1.566     1.307   0.0755        234     54.93492
 5.59   1499.6895  22.2494      209.046    844.0128   4.94     0.731     0.666   0.1967        235     37.87114
 3.71    887.1884  20.8568     753.8456   1499.8871 -10.50     1.355     1.271   0.0673        236     46.70348
 7.15    886.6302  21.3822     464.6328    339.9196   1.88     1.415     0.774   0.1690        237     72.31141
 5.64    898.9808  22.9140     113.3457    987.0000  90.00     0.857     0.289   0.2512        238     26.21511
 5.26    897.4250  20.0933     1522.931    538.4157  29.99     1.893     1.749   0.0659        239     92.44231
 7.61    890.4911  22.5069     164.9071    680.9788  32.19     0.795     0.314   0.2494        240     37.87114
 3.52    901.8569  18.5650      6222.98    302.6142 -40.12     2.039     1.990   0.0118        241     67.65821
 6.65    890.1083  20.3994      1148.81    326.2471  22.80     2.090     1.302   0.1006        242     106.4161
 8.32   1482.7103  21.3463     480.2467    575.0491 -58.96     1.286     0.867   0.1943        243     85.90852
 5.89   1489.2261  21.9791     268.1288     77.9050 -85.23     1.275     0.721   0.2236        244      55.2062
 4.61    913.9817  20.7665     819.2292    838.4760  19.87     1.454     1.365   0.0839        245     63.27617
 5.31    913.9099  21.3829     464.3654   1001.2720 -17.83     1.204     1.096   0.1383        246      59.1263
 3.50    881.6281  15.4151     113230.6   1592.4189  77.84     2.525     2.456   0.0008        247     84.68245
 5.33    895.1293  21.5203     409.1517   1425.6117  22.24     1.332     0.901   0.1501        248     56.54311
 7.51   1438.3938  22.7183     135.7275   1495.2007  19.65     0.765     0.441   0.3416        249     42.69261
 6.70    940.1116  21.0026     659.1399    516.0169  52.85     1.572     1.142   0.1430        250     86.77369
 3.50    923.3138  20.2327     1339.473    806.9643  65.58     1.705     1.570   0.0454        251     56.01217
 3.50   1409.5125  19.6216     2351.568    308.0300  26.47     1.859     1.658   0.0275        252     59.62951
 7.50   1476.4878  21.6084     377.2599    999.4863   0.19     1.041     0.500   0.1542        253     53.55788
 5.00    966.7556  21.6491     363.3701    416.5706 -75.97     1.190     0.957   0.1558        254      52.1445
 3.75    929.8041  20.5830     970.0388   1322.3405  46.82     1.571     1.384   0.0596        255     53.27821
 7.31    948.8851  21.0439     634.5024    444.5893  49.04     1.336     1.036   0.1413        256     82.53824
 6.94   1439.7006  23.0526     99.75745    647.3334  43.21     0.562     0.341   0.3092        257     28.40336
 5.30   1438.3149  23.0326     101.6115   1346.6786  44.67     0.564     0.340   0.2479        258     23.19124
 6.83    951.8928  20.8944      728.213    654.4578 -83.83     1.279     1.030   0.1130        259     75.74229
 4.16    940.5596  20.0023     1656.117   1067.0040  57.78     1.746     1.480   0.0433        260     66.04869
 4.09   1441.0920  19.5505     2510.634    618.8486 -20.90     1.823     1.680   0.0301        261     69.57373
 3.50   1436.7382  15.6397     92068.73   1089.2109  43.69     2.526     1.821   0.0011        262     93.09992
 3.50   1411.7726  21.1337     584.1453    349.3116  62.13     1.880     1.195   0.0948        263     50.98558
 5.92   1439.8511  21.4307     444.3416   1270.9764 -20.06     1.330     0.943   0.1569        264     64.21365
 7.54   1089.9775  21.8973       289.13    396.6888  78.15     0.741     0.678   0.1959        265      52.1445
 6.17    979.4700  21.7382     334.7357    452.2737  72.96     1.245     0.901   0.1384        266     42.66341
 3.73   1436.6449  19.2681     3256.432    224.4045  25.06     1.856     1.774   0.0218        267     65.36658
 3.50   1083.0808  18.1564     9066.479   1148.0122   4.62     2.075     1.992   0.0082        268     68.27317
 5.26   1401.7551  20.6307     928.3383   1031.5714 -10.37     1.665     1.429   0.0920        269     78.64533
 5.07   1067.0283  22.1322      232.873   1596.9507 -16.17     0.796     0.782   0.1748        270     37.47458
 4.66   1416.6246  19.9906     1673.963   1386.4370 -19.31     1.742     1.548   0.0482        271     74.34875
 7.31   1434.0306  21.9983     263.4316    340.5226  88.05     0.823     0.499   0.1885        272     45.73375
 6.25   1413.2245  21.7258     338.5878      1.4409  87.35     1.953     0.489   0.1578        273     49.19606
 7.84   1087.7867  22.1762     223.6185    639.7502 -48.22     1.627     0.425   0.1630        274     33.56462
 3.50   1081.2955  16.7691     32536.99    512.0266   1.75     2.424     2.363   0.0027        275     81.44497
 6.20   1087.1072  21.7143     342.1862   1452.9968 -58.43     1.198     0.771   0.1828        276     57.59029
 6.44   1404.9912  22.6704      141.856   1362.1821 -52.53     0.940     0.467   0.3268        277     42.69261
 3.50   1390.1338  18.4139     7151.994   1428.3429  24.43     2.015     1.981   0.0103        278     68.05399
 5.60   1407.5088  21.5212     408.8199    329.5723  42.39     1.107     0.930   0.1474        279     55.47616
 3.50   1394.7197  15.8018     79297.62    114.2365  -2.25     2.612     2.495   0.0012        280     86.77369
 6.59   1353.0374  21.2166     541.2256    152.1204 -59.00     1.536     1.084   0.1663        281     82.89946
 5.68   1130.1277  20.8533     756.2745    547.3596 -12.52     1.402     1.218   0.1038        282     72.31141
 3.60   1108.7540  18.4811     6723.054    427.8485 -17.02     2.143     1.992   0.0116        283     71.68891
 4.43   1393.6559  20.1284     1474.487   1038.5725  30.72     1.746     1.516   0.0514        284     69.78813
 6.07   1390.4139  21.4217     448.0573    806.3391  14.97     1.517     0.893   0.1676        285     69.14293
 3.94   1391.7336  19.5491     2513.861    713.0140 -18.73     1.876     1.718   0.0296        286     68.49165
 3.50   1095.9811  16.8803     29368.89    778.1253  40.92     2.339     2.123   0.0031        287       82.754
 3.56   1279.3623  19.0365     4031.043   1331.1583  75.39     1.973     1.870   0.0178        288     66.04869
 8.30   1094.3149  22.2108     216.6071    429.3361 -44.00     0.570     0.337   0.1776        289     35.42521
 3.52   1274.1741  17.7366        13346    609.6711 -59.24     4.450     2.803   0.0098        290     120.5052
 3.50   1321.3029  16.8548     30065.09    659.7650  30.09     2.403     2.317   0.0033        291     90.50716
 3.50   1211.9462  17.6368     14631.07   1278.7762  81.35     5.912     3.550   0.0115        292     155.4755
 6.39   1386.5453  22.6561     143.7376   1274.2920 -88.27     0.941     0.454   0.2349        293     31.09274
 3.57   1373.8639  18.2145     8593.949   1018.7498 -12.52     2.298     2.062   0.0096        294     75.74229
 3.50   1220.2120  18.1284     9303.546   1194.6749  79.24     2.221     2.136   0.0086        295     73.54058
 3.50   1333.7377  20.8556     754.7087    107.1235 -13.21     1.515     1.391   0.0717        296     49.79971
 4.11   1331.4196  21.9420     277.4563    386.3806  44.83     1.014     0.857   0.1467        297     37.47458
 6.03   1347.4882  21.9612     272.6057    604.6951 -37.74     1.121     0.830   0.2253        298     56.54311
 3.70   1331.1071  19.2348     3357.851    655.6794  30.01     2.005     1.880   0.0200        299     61.93417
 3.91   1308.8210  19.4290     2807.938    669.3890 -39.46     2.205     1.678   0.0248        300     64.14481
 3.50   1320.5798  21.3505     478.4106    263.9218  87.87     1.356     1.157   0.0953        301      41.9869
 3.50   1292.6479  18.4882     6679.215    762.0434 -19.19     2.457     2.002   0.0123        302     75.54478
 4.62   1306.1183  20.8261     775.4901    892.7058  10.67     1.547     1.115   0.0835        303     59.62951
 5.78   1229.8682  21.5391     402.1162   1153.2817  39.15     1.141     0.988   0.1610        304     59.62951
 3.50   1299.5809  14.8672     187549.8    724.7350 -13.82     2.986     2.612   0.0006        305     95.15007
 8.41   1300.4139  22.0263       256.73     53.7503 -19.42     0.759     0.449   0.2002        306     47.33893
 7.12   1263.6656  21.3579     475.1746    855.2507  59.95     1.107     0.924   0.1575        307     68.92652
 7.20   1292.7781  22.4331     176.5121    545.4184 -70.33     0.753     0.449   0.2425        308     39.41753
 4.29   1293.8401  20.7651     820.2561    412.4756  -9.04     1.530     1.267   0.0766        309     57.84912
 3.83   1266.6023  19.2840     3209.365    807.7180  21.32     1.922     1.788   0.0231        310     68.27317
 4.85   1201.8480  20.5109     1036.686   1441.9393  52.88     1.812     1.625   0.0851        311     81.26133
 8.04   1262.5000  22.2209     214.6141    216.5174  45.65     0.507     0.493   0.1995        312     39.41753
 6.54   1275.1787  22.3739      186.392    697.8320 -44.81     0.757     0.569   0.2487        313     42.69261
 6.30   1239.4313  22.7646     130.0646    857.8013 -19.51     0.723     0.459   0.2958        314     35.42521
 6.43   1239.1719  21.4793     424.8741     47.7610 -21.29     0.957     0.857   0.1439        315     56.27827
 4.07   1260.6809  20.3393     1214.209    432.3235  39.19     2.006     1.652   0.0641        316     71.68891
 3.92   1235.6237  19.5052     2617.639    304.5523  17.18     1.862     1.665   0.0275        317      66.2745
 6.02   1231.2905  20.7336     844.3934    599.4324   2.38     1.529     1.374   0.1082        318     84.15152
 5.46   1131.3656  21.1472     576.9283    219.2833   5.73     1.407     1.133   0.1248        319      66.2745
 4.41   1238.3259  20.0406     1598.715   1553.3666 -27.74     1.624     1.543   0.0462        320     68.05399
 6.76   1205.4940  22.7846     127.6959   1216.5016 -44.36     0.501     0.499   0.2630        321     30.92166
 5.50   1213.8219  20.0145     1637.502   1429.0648  62.25     2.314     1.913   0.0741        322     111.7573
 3.50   1215.8936  17.6686     14208.33    512.8163  15.77     2.201     2.128   0.0056        323     73.74345
 4.51   1152.6636  20.1172     1489.769     99.1995   1.42     1.734     1.670   0.0542        324     74.34875
 3.50   1203.1788  20.1821     1403.373    338.7114 -30.18     1.595     1.555   0.0414        325     53.55788
 4.68   1209.0653  19.9523      1734.08    838.6197 -85.46     1.629     1.532   0.0450        326     71.89701
 4.65   1196.0720  20.0064     1649.869    124.1343 -62.98     2.122     1.792   0.0577        327     87.63031
 5.11   1183.4504  22.4930     167.0349    176.4444  43.16     1.018     0.596   0.2488        328      38.2636
 4.83   1154.7657  20.7040     867.7341   1352.9104 -16.12     1.614     1.496   0.0910        329     72.72344
 4.15   1182.1749  21.2125     543.2716    549.4448  52.55     1.339     1.137   0.0995        330     49.79971
 3.50   1139.7526  16.8320     30704.12    147.8719   8.47     2.418     2.290   0.0028        331     80.33682
 3.50   1131.2678  17.5295     16151.04    183.3222 -32.95     2.262     2.226   0.0052        332     76.72218
 3.50   1166.4521  16.3127     49537.87   1299.5201 -18.21     2.442     2.420   0.0018        333     81.81102
 6.03   1177.4873  22.9572     108.9192     18.4826 -45.28     0.507     0.492   0.3083        334     30.92166
 5.64   1162.4760  21.4946      418.936    887.9290  -3.08     1.214     0.999   0.1565        335     60.37647
 3.67   1159.0970  18.6950     5520.521    236.1458  28.14     2.115     1.861   0.0138        336     70.21497
 7.09   1168.7396  22.5743     154.9868   1599.5944  70.66     0.747     0.449   0.2233        337     31.87332
 7.44   1159.0020  22.3158     196.6385    566.4996 -87.38     0.808     0.499   0.2526        338     45.73375
 7.78   1067.8488  21.8428     304.0182    569.1644 -43.13     0.772     0.568   0.1811        339     50.69172
 7.25   1132.3717  21.9548     274.2108    357.5125 -36.20     1.445     0.399   0.2110        340     53.27821
 4.51   1121.3683  19.5463      2520.57    329.5204  59.09     2.915     1.938   0.0447        341     103.8583
 6.88   1112.3186  19.7135     2160.722    478.9656  26.14     2.244     1.894   0.0689        342     137.0923
 4.88   1096.9320  20.7453     835.3533   1526.4592  39.67     1.378     1.340   0.0838        343     64.44588
 5.70   1091.7946  20.7265      849.926    468.3736 -46.23     2.025     1.407   0.1196        344     93.56676
 4.76   1080.5232  21.7599     328.1212    329.8643 -14.82     1.275     0.874   0.1608        345      48.5849
 3.62   1096.0430  22.2465     209.6125   1136.1641  -2.82     0.929     0.750   0.1525        346     29.43654
 3.62   1039.9791  18.2593     8246.903    525.2814  39.16     2.099     2.006   0.0095        347     71.89701
 4.48   1073.2251  19.9500     1737.825   1218.8110 -45.87     2.074     1.941   0.0548        348     87.63031
 6.06   1066.8558  20.4975     1049.583   1563.1591  75.22     1.791     1.399   0.0962        349     92.92589
 8.91   1022.3207  22.3795     185.4347   1268.9786  27.92     0.914     0.210   0.2218        350     37.87114
 3.50   1011.1424  17.5258     16206.39    813.5724  16.49     2.242     2.159   0.0051        351     75.54478
 3.50   1041.5156  16.4869     42192.06    632.9080  15.36     2.404     2.380   0.0021        352     81.26133
 4.50    982.2241  20.6518     910.4949    798.0075   3.67     1.606     1.483   0.0801        353     67.17014
 7.17   1041.9910  22.6053     150.6129    467.0000  90.00     0.854     0.289   0.2524        354     35.00094
 6.13    987.8519  19.9268     1775.374    454.2320  47.59     1.987     1.789   0.0686        355     112.1576
 4.40   1031.5873  19.8960     1826.366    302.4051  70.40     2.789     1.769   0.0563        356     94.67786
 3.50   1027.0433  17.3612     18858.71   1379.8351  39.67     2.265     2.217   0.0044        357     75.74229
 6.70   1015.7997  22.2931     200.7955    452.9904 -57.19     0.813     0.506   0.2271        358      41.9869
 7.16    999.1955  22.0991     240.0734    232.9355 -30.82     1.047     0.668   0.2605        359     57.59029
 3.50    986.2090  16.8951     28971.86    558.3832  37.50     2.341     2.296   0.0029        360     78.45514
 4.10   1012.5897  19.6141     2367.891    344.5637  27.05     1.809     1.763   0.0323        361     70.42743
 6.84   1011.5046  22.9333     111.3517    266.9890 -31.78     0.807     0.310   0.3016        362     30.92166
 4.05   1001.1897  20.9451     694.9786   1273.6108  -3.61     1.429     1.188   0.0801        363     51.27777
 3.64   1002.5687  20.4470     1099.537   1555.2332  79.83     1.624     1.448   0.0537        364     54.38829
