#   1 KRON_RADIUS            Kron apertures in units of A or B                         
#   2 MAGERR_APER            RMS error vector for fixed aperture mag.                   [mag]
#   3 Y_IMAGE                Object position along y                                    [pixel]
#   4 X_IMAGE                Object position along x                                    [pixel]
#   5 THETA_IMAGE            Position angle (CCW/x)                                     [deg]
#   6 FLUX_APER              Flux vector within fixed circular aperture(s)              [count]
#   7 A_IMAGE                Profile RMS along major axis                               [pixel]
#   8 B_IMAGE                Profile RMS along minor axis                               [pixel]
#   9 FLUX_RADIUS            Fraction-of-light radii                                    [pixel]
#  10 FLUXERR_APER           RMS error vector for aperture flux(es)                     [count]
#  11 MAG_APER               Fixed aperture magnitude vector                            [mag]
#  12 NUMBER                 Running object number                                     
 3.50   0.0001    181.0222   1105.8365 -40.31     733790.7     6.539     5.885     10.461     73.16861  13.3861          1
 3.68   0.0030     52.4050     61.7681  -2.27     26534.11     6.359     5.786     13.983     73.17689  16.9905          2
 3.50   0.0018     58.9521   1076.9418  81.32     44649.95     2.093     1.972      5.658     73.15205  16.4254          3
 3.50   0.0175     15.7237    983.4587 -87.90     4542.667     4.509     1.979      9.068     73.13549  18.9067          4
 3.50   0.0232     17.0120     89.4810 -42.63     3428.806     1.663     1.619      5.046     73.17689  19.2121          5
 3.50   0.0081     13.8143   1444.2383 -42.28     9778.025     1.721     1.697      5.092     73.18516  18.0744          6
 3.64   0.7868     16.2665    382.9738  86.43     100.9965     1.231     1.191      4.127     73.16861  23.0392          7
 4.95   0.2577     13.1674    839.5089 -76.27     308.2048     1.479     0.949      6.253     73.12721  21.8279          8
 3.64   0.3192      9.2333   1182.3411 -70.45     248.9815     1.026     0.964      3.218     73.17689  22.0596          9
 4.21   0.3950      5.6605   1467.9125   8.54       190.69     1.152     0.903      4.071     69.36147  22.3492         10
 4.51  68.0971      3.6078    143.2684  59.55     1.014502     1.696     1.490      2.507     63.61388  28.0344         11
 0.00  99.0000      3.6479    183.5916 -38.45    -196.9967     1.080     0.962      6.479     63.78502  99.0000         12
 6.99   0.6293      2.5114    843.4935  44.82     103.1733     0.507     0.493      3.041     59.78583  23.0161         13
 6.37  99.0000      1.8622    302.3619  20.33    -57.88503     0.906     0.677      5.436     57.39818  99.0000         14
 3.91   0.1385     23.8545    365.4416  -3.18      573.415     1.390     1.345      4.382     73.15205  21.1538         15
 4.93   0.8125     14.8386   1561.6169 -19.92     97.82223     0.905     0.686      3.092     73.18516  23.0739         16
 4.67   0.9652     17.1879   1213.4882  -0.33     82.32727     0.921     0.725      1.921     73.16861  23.2611         17
 7.39  99.0000     15.4944    192.9995 -32.51    -53.39965     0.786     0.318      3.728     73.13549  99.0000         18
 4.18   0.1743     33.0747   1108.5681  65.68     455.7963     2.036     1.213      5.526     73.14378  21.4031         19
 3.82   0.2410     23.0219    381.4543   6.25     329.8687     1.319     1.170      4.466     73.19344  21.7541         20
 5.46   0.4447     22.9778    696.8055  -3.26     178.6533     0.886     0.748      3.828     73.15205  22.4200         21
 0.00  99.0000     20.6041    212.2110 -18.94    -306.8045     0.744     0.450   -423.338     73.12721  99.0000         22
 6.44   0.1088     23.9324   1451.8411 -46.75     730.5181     0.843     0.652      4.278     73.16033  20.8909         23
 4.88   0.4705     32.3874    325.0325 -26.40     168.8948     1.486     1.262      4.848     73.16861  22.4810         24
 7.47   0.2987     26.2151    701.0262  -0.99     265.9979     0.703     0.411      3.433     73.16033  21.9878         25
 0.00  99.0000     33.5743     14.7714 -89.15    -209.2269     0.947     0.712      1.239     73.16861  99.0000         26
 3.57   0.4434     37.0450   1519.9745 -74.77     179.2615     1.093     1.076      3.484     73.19344  22.4163         27
 4.28   0.2281     38.0067   1169.0526  23.11      348.661     1.223     1.198      4.763     73.21825  21.6940         28
 3.71   0.2080     41.6028    913.7512 -64.32     382.1989     1.133     1.039      3.110     73.20998  21.5943         29
 3.50   0.0018     79.0617    535.8607 -66.40     43077.34     1.966     1.931      5.561     73.14378  16.4644         30
 4.97   0.3363     43.5270    438.5287 -52.86     236.0443     1.481     1.242      4.153     73.09408  22.1175         31
 0.00  99.0000     38.6270   1224.5396 -37.16    -2.864488     1.156     0.777   -101.716     73.17689  99.0000         32
 0.00  99.0000     49.4868    263.5109  89.83    -151.6984     1.455     1.089    -18.603     73.11065  99.0000         33
 4.50   0.4873     41.5007    999.9727  -1.62     162.9259     0.790     0.500      2.405     73.11065  22.5200         34
 0.00  99.0000     42.5779    226.7772  19.95    -405.5644     0.748     0.450    -24.303     73.16033  99.0000         35
 7.84   1.6840     45.7927    473.3825 -71.71     47.16543     0.746     0.449      4.478     73.13549  23.8659         36
 4.11   0.3306     49.4914   1433.9777  -4.26     240.2575     1.069     0.925      4.002     73.13549  22.0983         37
 5.09   0.7304     46.7959   1429.1587  44.33     108.8144     0.809     0.669      3.568     73.18516  22.9583         38
 5.94   0.2768     46.8517    664.8470 -43.30     287.1521     0.825     0.669      4.254     73.18516  21.9047         39
 6.42  99.0000     50.4846    119.9498   0.88    -131.5514     0.780     0.500      0.242     73.12721  99.0000         40
 3.52   0.0589     74.1052    126.4799 -19.14     1347.954     1.475     1.433      4.675     73.10236  20.2258         41
 7.34   1.7364     57.4917   1240.0228 -32.67     45.74242     0.781     0.319      2.531     73.13549  23.8992         42
 4.98   0.2471     64.9824   1146.2659   9.37     321.5833     1.374     1.141      5.950     73.17689  21.7818         43
 0.00  99.0000     68.4563     17.7707  88.90    -111.1135     0.996     0.721    -23.899     73.18516  99.0000         44
 0.00  99.0000     66.8790   1414.1798 -28.14    -78.01087     0.963     0.744      5.777     73.16861  99.0000         45
 6.93  99.0000     65.5014   1514.5054 -45.69    -51.02875     0.501     0.499      2.090     73.07751  99.0000         46
 5.53   0.7738     70.7447   1320.8502 -68.46     102.6804     0.911     0.682      2.627     73.16033  23.0213         47
 3.50   0.0012    120.9251    787.4896 -59.16     63921.51     2.018     1.992      5.621     73.10236  16.0359         48
 3.90   0.3884     81.3288    419.7149 -76.83     204.3815     1.520     1.278      4.853     73.10236  22.2739         49
 3.94   0.1052     89.6612    375.3916 -19.36     755.9861     2.301     2.014      6.979     73.20998  20.8537         50
 8.71   0.5040     75.8810     80.4187 -26.69     157.6734     1.370     0.840      3.459     73.17689  22.5556         51
 4.79   1.9078     78.7909   1031.8494 -33.64     41.66513     0.892     0.849      1.667     73.19344  24.0006         52
 3.50   0.0003    192.5951    316.2862 -64.39       270887     2.878     2.293      6.262     73.15205  14.4680         53
 3.50   0.0371     95.5876     54.3806 -29.57     2140.655     1.614     1.584      4.895     73.14378  19.7236         54
 5.86   0.8139     87.0195   1358.1309 -88.30     97.67693     0.995     0.847      5.058     73.20171  23.0755         55
 5.84   0.1477     87.4903    757.1628  35.83     537.5379     1.165     1.017      5.769     73.11893  21.2240         56
 6.63   0.2637     82.9746    930.8279  20.66     301.3276     1.160     0.723      4.116     73.16861  21.8524         57
 6.93   0.3746     86.4810    862.1655 -47.77     212.0985     1.108     0.733      5.355     73.15205  22.2337         58
 6.86   3.2281     85.0348   1559.2076  52.97     24.61554     0.930     0.470      2.915     73.16861  24.5720         59
 6.00   0.2821     90.8526   1043.8802  55.00      281.443     1.397     0.799      5.601     73.11065  21.9265         60
 3.82   0.2976     90.7001    494.0876   0.64     266.6162     1.105     1.019      3.903     73.06921  21.9853         61
 4.28   0.1496     97.1019    451.1805 -12.65     530.6761     1.924     1.255      5.631     73.11893  21.2379         62
 5.06   0.2398     94.6267   1074.8350  39.51     331.3109     1.336     1.126      6.231     73.16861  21.7494         63
 7.44   0.3288     85.3500    923.3128 -46.64     241.5161     0.575     0.334      1.383     73.11893  22.0926         64
 6.97   0.3413     87.8495    810.6924 -59.25     232.6545     0.869     0.590      4.422     73.11065  22.1332         65
 6.33   0.5762     94.0801    387.5246  89.88     137.8514     0.774     0.499      2.821     73.13549  22.7015         66
 4.03   0.0032    233.9082    401.8713 -47.20     24617.63     8.632     7.090     23.063     73.11065  17.0719         67
 6.55   0.2465    101.8555    517.3245  20.24     322.2327     0.933     0.683      5.314     73.12721  21.7796         68
 0.00  99.0000    112.7964    268.6332  80.50     -9.89084     1.522     1.118    -44.321     73.17689  99.0000         69
 4.71   0.4073    107.3404    861.3599  41.75     195.0711     0.979     0.859      3.656     73.16861  22.3245         70
 6.49   0.4376    106.1678   1098.1515 -41.98     181.6135     0.806     0.676      4.540     73.18516  22.4021         71
 6.85   2.1418    106.9845   1420.9861 -44.46     37.09608     0.881     0.534      5.283     73.16033  24.1267         72
 0.00  99.0000    106.4694    180.4571 -48.20      -100.93     0.503     0.495      0.000     73.12721  99.0000         73
 5.35  99.0000    114.2177    414.3000 -75.12    -26.88493     1.174     0.927      1.717     73.11893  99.0000         74
 0.00   6.3259    109.9821   1513.4705   1.43     12.56542     0.806     0.687      4.839     73.19344  25.3021         75
 3.50   0.2539    116.1276    989.3898 -72.21     313.0574     1.139     0.958      3.112     73.19344  21.8109         76
 4.15  99.0000    116.6369    152.4058  53.02    -47.28154     1.006     0.952      2.397     73.16861  99.0000         77
 5.52  99.0000    116.3723     65.2133   7.35    -22.35026     1.480     0.950      5.977     73.16861  99.0000         78
 3.50   0.0022    161.4548   1466.8241 -54.44     36294.82     1.934     1.900      5.426     73.19344  16.6504         79
 5.02   0.2458    125.2403    492.5927  -6.86      323.277     1.464     1.092      5.787     73.17689  21.7761         80
 8.11   0.5866    117.6457    911.6918 -47.04     135.3307     0.575     0.334      3.204     73.10236  22.7215         81
 4.68   0.3527    130.2387    416.2955 -27.12     225.0625     1.014     0.997      4.509     73.10236  22.1692         82
 0.00  99.0000    127.1574   1476.9080  43.78    -7.637218     0.822     0.651      0.000     73.09408  99.0000         83
 5.12   0.2307    128.0846    884.0657 -58.07     344.1644     0.780     0.779      3.568     73.10236  21.7081         84
 5.84   0.1876    141.3550    884.3093  52.16     423.2303     2.131     0.964      6.609     73.11065  21.4836         85
 8.30  99.0000    134.6447     97.6783 -46.36    -175.5667     0.581     0.330      2.278     73.12721  99.0000         86
 5.23   1.9889    145.7969    352.2505 -48.50     39.97396     1.407     1.153      4.170     73.20998  24.0456         87
 0.00 174.1199    138.1987   1599.6450 -72.96    0.3452672     0.752     0.444      4.510     55.35717  29.2046         88
 3.50   0.0097    169.2841    875.6372 -78.34     8188.287     1.768     1.723      5.248     73.15205  18.2670         89
 3.99   0.4601    150.7436   1278.8497  28.32     172.6659     1.078     1.029      4.255     73.15205  22.4570         90
 4.29   0.0934    164.2198   1444.2903  61.79     850.3947     1.450     1.305      5.518     73.15205  20.7259         91
 3.87   6.9860    154.5441     80.6298 -48.01     11.37698     1.066     0.917      3.845     73.18516  25.4099         92
 6.00   0.4411    155.1815   1578.5652   5.70     180.1478     0.898     0.727      3.319     73.16861  22.4109         93
 7.51   0.4450    154.5055    822.5117  46.03     178.3769     0.501     0.498      2.041     73.08579  22.4217         94
 3.50   0.2110    165.7383    102.5978 -37.77     376.7237     1.311     1.165      3.769     73.20998  21.6099         95
 4.87   0.2451    165.0086    574.7706  86.48     324.2273     1.251     0.963      5.099     73.16861  21.7729         96
 7.70   0.2454    165.8022   1054.6754 -60.40     323.9001     1.211     1.000      7.269     73.18516  21.7740         97
 8.26   0.3265    159.3821    491.2143  17.93     243.3484     0.756     0.448      3.861     73.16033  22.0844         98
 5.10  99.0000    164.3577   1196.5062  18.24   -0.2549935     0.945     0.817      4.458     73.09408  99.0000         99
 4.96   0.3181    167.8831    649.7219  36.86     249.6378     1.237     1.028      4.685     73.11893  22.0567        100
 5.03   0.1754    168.4620   1367.5079  -4.70     452.7886     1.259     0.968      5.166     73.13549  21.4103        101
 6.77   0.3122    174.8292   1198.9620 -74.73      254.557     1.100     0.850      5.851     73.17689  22.0355        102
 4.54   0.1489    179.3327    573.3319  24.33     533.0887     1.714     1.330      6.241     73.11065  21.2330        103
 5.66   0.2165    185.8885   1353.4348 -69.02     366.8831     1.580     1.377      6.483     73.14378  21.6387        104
 4.12   0.0809    191.7545   1349.0994  -8.69      981.424     1.394     1.366      5.001     73.07751  20.5704        105
 6.94   0.1643    189.5625   1026.0391  51.22     483.6673     1.298     1.107      7.785     73.19344  21.3386        106
 8.39  99.0000    182.3929     58.7790 -19.01    -48.82132     0.766     0.444      2.425     73.15205  99.0000        107
 3.61   0.0231    209.8589    826.0873  -7.87     3435.971     4.937     2.269     10.425     73.12721  19.2099        108
 3.95   0.0276    229.0334    560.6039 -26.64     2882.933     3.951     3.606     12.239     73.17689  19.4004        109
 7.27   0.2680    186.4370    834.3389  -8.75     296.5252     0.995     0.478      3.422     73.16861  21.8698        110
 5.73   0.3114    194.2279    266.1493  -2.74     255.2132     1.598     1.112      4.412     73.18516  22.0327        111
 3.50   0.0007    258.9285    995.8074 -39.84     117078.5     2.157     2.062      5.689     73.19344  15.3788        112
 5.33   0.0825    207.8602    348.2912  42.92      962.194     2.172     1.551      8.764     73.11893  20.5918        113
 3.50   0.0420    205.7459    547.4401  30.29     1890.125     1.440     1.435      4.674     73.15205  19.8588        114
 7.23   0.4144    193.8830   1158.3497  19.93     191.6333     0.901     0.693      5.313     73.12721  22.3438        115
 4.67   0.2935    202.5069    249.0628 -82.07     270.5595     1.245     1.125      5.338     73.12721  21.9693        116
 6.30   0.7076    195.0164    447.8040  -1.57     112.2411     0.905     0.757      3.154     73.13549  22.9246        117
 3.50   0.0500    211.3949   1304.6354 -22.74     1587.895     1.484     1.447      4.595     73.16861  20.0479        118
 3.50   0.0010    264.9597     65.7597 -32.49     81281.15     2.095     2.035      5.763     73.19344  15.7750        119
 4.14   0.1146    209.9293    683.1187 -66.62     692.7813     1.588     1.287      4.963     73.11065  20.9485        120
 5.97   0.2341    205.0531    940.3129  79.60     339.1879     0.730     0.683      4.073     73.11065  21.7239        121
 6.18   0.2265    204.7234    935.2993 -17.45     350.3786     1.044     0.660      4.895     73.08579  21.6887        122
 5.76  99.0000    204.9661    182.0299 -44.92    -6.507083     0.793     0.788      4.600     73.16861  99.0000        123
 6.06   0.0938    221.6865    344.0318  25.49     847.2104     2.076     1.969     10.273     73.16033  20.7300        124
 3.64   0.3489    208.3053   1224.1161  17.48     227.4688     1.017     0.915      3.268     73.06921  22.1577        125
 3.50   0.0410    223.2675   1224.5825 -89.29     1936.832     1.447     1.430      4.418     73.18516  19.8323        126
 6.36   0.3591    216.6158    881.3004 -56.94      221.155     1.809     0.740      5.508     73.13549  22.1883        127
 6.23   0.1663    216.7369    739.7720 -48.77       477.79     1.484     1.052      7.165     73.16861  21.3519        128
 3.50   0.0002    311.2113    437.7717 -43.93       333701     2.528     2.337      6.116     73.17689  14.2416        129
 3.50   0.1013    221.6353    773.3149 -28.64     784.5387     1.304     1.232      4.096     73.16033  20.8135        130
 7.25   0.4452    213.9205    791.8632 -44.17     178.3334     0.851     0.667      5.107     73.11065  22.4219        131
 8.64   0.2873    220.8395    373.6221  32.45     276.5688     1.683     0.981     10.097     73.17689  21.9455        132
 7.72   0.1868    226.6158    323.3230 -86.04     425.5413     1.792     0.855      6.942     73.18516  21.4776        133
 4.09   0.0715    243.0104    111.1028 -84.61     1110.768     2.358     1.744      7.281     73.12721  20.4359        134
 4.02   0.0232    254.5417    611.2194 -43.66     3424.785     2.738     2.260      7.957     73.18516  19.2134        135
 7.73  99.0000    220.6618   1401.3055  46.61    -1.648944     0.567     0.338      2.523     73.11893  99.0000        136
 6.32   0.2527    229.1916    546.3879 -64.50     314.2442     1.265     1.034      5.538     73.12721  21.8068        137
 4.00   0.1027    238.3424    837.3022  -9.76     773.0763     1.711     1.461      5.687     73.10236  20.8294        138
 0.00   0.9285    232.0458   1551.7197 -75.01     85.53036     0.719     0.670      0.000     73.12721  23.2197        139
 5.39   0.4189    238.9705   1477.4504 -68.12      189.752     1.289     0.924      4.420     73.18516  22.3545        140
 5.53   0.1263    251.0242   1371.4264  88.51     629.2501     1.875     1.660      7.626     73.16861  21.0529        141
 5.00   0.1432    249.4536    105.7782 -15.15     554.9217     1.367     1.268      6.098     73.18516  21.1894        142
 6.38   0.2917    247.8134   1412.9871  26.31     272.2741     1.222     0.976      5.088     73.14378  21.9625        143
 3.56   0.3491    252.4222   1351.3031 -18.77     227.4936     1.077     1.070      3.759     73.12721  22.1576        144
 4.93   0.3181    248.0549    561.1425 -45.10     249.6658     0.823     0.656      3.249     73.13549  22.0566        145
 5.40   1.3283    250.4485   1549.2814 -84.04     59.78707     0.998     0.957      4.201     73.12721  23.6085        146
 3.50   0.0041    286.7189   1484.9951 -39.03     19447.16     1.874     1.841      5.307     73.16033  17.3279        147
 6.17   0.6241    248.9496    149.9729  73.74     127.3508     0.793     0.788      4.756     73.18516  22.7875        148
 6.83   0.7852    252.4687    693.5012  40.35     101.1368     0.503     0.496      0.950     73.12721  23.0377        149
 3.50   0.0183    281.0660   1520.9102  76.99     4329.957     1.639     1.588      4.838     73.13549  18.9588        150
 6.41   0.2361    264.1126    722.8807 -57.13     336.2902     1.243     0.947      6.083     73.11065  21.7332        151
 3.50   0.0003    350.4285    889.1489 -49.01     296817.8     2.387     2.221      5.918     73.18516  14.3688        152
 3.50   0.0014    317.8304    903.7720 -63.35        56376     2.038     1.981      5.575     73.17689  16.1723        153
 5.46   0.2899    264.5226    122.0393  -1.21     274.0085     1.080     0.952      4.920     73.14378  21.9556        154
 4.90   0.1625    270.1254   1272.1100   7.57     488.4062     1.506     1.316      5.742     73.10236  21.3280        155
 6.48  99.0000    261.2282   1207.9971   0.13   -0.9090056     0.689     0.420      4.133     73.14378  99.0000        156
 6.80   0.8119    267.1037   1386.8289  48.46     97.80623     0.839     0.668      3.659     73.11893  23.0741        157
 7.58   0.1974    268.0160    368.0384   0.94     402.5341     1.012     0.733      6.071     73.18516  21.5380        158
 3.50   0.0003    350.4937   1344.3156 -36.91     286782.4     2.394     2.229      5.836     73.07751  14.4061        159
 3.50   0.0056    302.1434    199.9518 -79.73     14290.01     1.813     1.801      5.365     73.16033  17.6624        160
 6.87   0.8057    268.3021   1308.6689  43.48      98.5656     0.562     0.341      3.026     73.12721  23.0657        161
 3.50   0.0451    288.8237    513.3386  27.69     1762.755     1.893     1.834      5.864     73.18516  19.9345        162
 6.27   0.4535    270.4909   1248.9762   1.18     175.1508     0.770     0.500      4.157     73.13549  22.4415        163
 4.38   0.0786    296.6169   1412.0374 -41.70     1011.561     3.597     1.650      8.467     73.18516  20.5375        164
 7.97   0.3019    275.9687   1376.4888  89.22     263.0813     0.794     0.500      2.519     73.13549  21.9998        165
 6.89   0.4502    274.5126   1369.0352   0.02     176.4098     0.780     0.500      3.736     73.13549  22.4337        166
 3.50   0.0444    293.0799   1326.0524  -7.85     1789.773     1.499     1.464      4.650     73.11893  19.9180        167
 4.57   0.0883    292.5134   1474.2167 -17.53     899.7307     1.626     1.395      4.986     73.16033  20.6647        168
 6.58   0.4077    278.4937    555.5334  -0.01     194.7899     1.063     0.500      3.611     73.13549  22.3261        169
 7.55   0.2754    287.1521    413.4819  13.30     288.3954     1.036     0.857      4.206     73.13549  21.9000        170
 7.25   0.3516    285.3535    336.7982  67.10     226.1032     0.735     0.659      4.412     73.20171  22.1642        171
 4.92   0.4135    291.3463    246.8294 -26.38     192.2272     1.209     1.045      5.222     73.18516  22.3405        172
 6.45   1.8810    286.9872   1349.7050 -88.74      42.2302     0.744     0.675      2.299     73.14378  23.9859        173
 3.50   0.0999    301.2831    561.9075  57.68     794.7936     1.420     1.390      4.557     73.11893  20.7994        174
 5.46   0.1658    307.6686     83.4995  76.55     478.9668     1.953     1.350      8.133     73.11893  21.3492        175
 6.42   0.1928    294.5245    885.6899 -11.71     411.8217     0.953     0.939      5.720     73.10236  21.5132        176
 3.50   0.0083    321.1589    695.6109  55.20     9627.347     1.707     1.700      5.152     73.16861  18.0912        177
 3.50   0.0124    345.4642    865.4515  53.74     6399.075     2.524     2.088      6.311     73.14378  18.5347        178
 3.59   0.0916    320.7474    639.8264 -63.05     867.3554     2.503     1.668      6.260     73.18516  20.7045        179
 7.28   0.3737    310.3055    315.7304  75.59     212.5053     1.350     0.931      6.925     73.11893  22.2316        180
 4.10   0.0432    326.5276    593.7271   4.50     1838.728     2.087     1.959      6.842     73.11065  19.8887        181
 3.86   1.4108    308.7935    983.5371  25.15       56.348     0.966     0.956      2.513     73.20171  23.6728        182
 5.26   0.3836    315.9427    225.0871  -1.04     207.0234     1.236     0.852      5.731     73.12721  22.2600        183
 6.01   0.7424    312.7872   1494.9622  -1.51     107.0622     0.688     0.409      4.128     73.18516  22.9759        184
 5.10   0.1996    323.8518    954.0250  24.36     398.2464     1.570     1.202      6.004     73.19344  21.5496        185
 4.55   0.1957    328.4711   1544.5985 -22.93      406.259     1.198     1.133      4.833     73.19344  21.5280        186
 7.60   0.6219    320.5096    574.5020  44.12     127.6177     0.501     0.499      1.935     73.08579  22.7852        187
 3.60   0.1740    331.2683     91.5539 -37.81     456.4431     1.251     1.148      3.880     73.15205  21.4015        188
 5.25   0.4860    323.9714    340.2361   1.18     163.5153     0.899     0.741      4.669     73.16861  22.5161        189
 3.50   0.0157    354.8637    430.0891  84.22     5057.723     2.035     1.846      5.717     73.12721  18.7901        190
 4.51   0.3004    334.1932   1438.9866 -61.97     264.3143     1.187     1.115      3.648     73.11065  21.9947        191
 0.00   0.6980    328.3133    242.3292 -44.21     113.7456     0.567     0.339      0.000     73.10236  22.9102        192
 7.57   0.4031    335.0217    621.7671  89.09     197.1377     0.704     0.423      3.445     73.16861  22.3131        193
 5.84   0.2454    338.5684    804.0828 -10.93     323.7473     2.019     0.865      7.796     73.15205  21.7745        194
 6.27   0.3696    336.1012    811.3517 -21.42     214.6942     1.121     0.659      4.227     73.06093  22.2204        195
 7.84   0.3327    335.5740    609.2935   7.76     238.6992     0.983     0.481      4.934     73.13549  22.1054        196
 3.64   0.0879    349.0482     52.9581 -34.75     903.9337     1.397     1.349      4.468     73.17689  20.6597        197
 3.50   0.0081    367.2421    759.4966 -16.46     9810.688     1.788     1.731      5.229     73.09408  18.0708        198
 3.50   0.0204    366.4039    441.0595  60.32     3896.692     1.703     1.614      5.126     73.20998  19.0733        199
 6.04   3.1913    340.0346   1502.2819 -85.56     24.89357     0.729     0.670      3.700     73.15205  24.5598        200
 3.50   0.0017    394.2231    229.6339 -61.52     47471.64     2.001     1.944      5.636     73.16861  16.3589        201
 7.16   0.1752    349.2558    918.5583 -43.59     453.4911     1.419     1.262      8.512     73.14378  21.4086        202
 5.32   0.4052    347.1980     40.6213 -70.01     196.0453     1.034     0.913      4.547     73.15205  22.3191        203
 3.50   0.0428    360.3920   1498.8724 -13.07     1857.023     1.705     1.432      4.590     73.17689  19.8780        204
 4.36   0.0984    374.3014    752.1323  56.57     806.9192     2.498     1.457      7.531     73.12721  20.7829        205
 4.77   0.2315    358.7290    531.6100 -31.96     343.4565     1.382     1.241      6.008     73.20171  21.7103        206
 3.63   0.1464    359.6933   1032.4904 -13.85     542.3066     1.267     1.224      4.162     73.10236  21.2144        207
 5.23   0.2400    362.5005   1414.1726 -86.10     330.8315     1.351     1.231      4.904     73.11065  21.7510        208
 5.94   1.7041    355.0646   1396.9675  60.64     46.63064     0.773     0.771      2.156     73.16861  23.8783        209
 8.72   1.1087    352.5162   1578.9824 -32.66     71.67347     0.781     0.319      4.685     73.16861  23.4116        210
 6.61   0.4980    360.5316    368.4804  79.14     159.4287     0.947     0.897      5.680     73.11065  22.5436        211
 4.38   0.2137    369.5655     69.7675 -54.66     371.9337     1.395     1.220      4.569     73.18516  21.6238        212
 5.83   0.2261    368.2738    208.4582 -81.93     351.2218     1.185     0.992      4.754     73.12721  21.6860        213
 3.66   0.1111    371.8491    990.9427 -12.33     715.2972     1.288     1.225      4.346     73.15205  20.9138        214
 3.96   0.1556    372.4417   1082.3573 -12.91     510.5378     1.515     1.457      4.884     73.16861  21.2799        215
 6.83   0.5108    365.1463    940.1025 -44.47     155.3975     0.827     0.666      4.265     73.09408  22.5714        216
 3.50   0.0117    396.2050   1459.7307 -71.23     6822.628     1.701     1.671      5.043     73.19344  18.4651        217
 3.62   0.4388    374.3093     85.4302 -68.26     180.9973     1.049     0.957      3.307     73.13549  22.4058        218
 3.50   0.0105    397.1697    352.8683 -62.71     7597.595     1.731     1.677      5.105     73.16861  18.3483        219
 3.50   0.0018    418.7024    431.5961 -53.88     43505.97     1.960     1.933      5.522     73.14378  16.4536        220
 4.67   0.2096    381.4783     65.5865  33.45     379.1408     1.422     1.131      6.432     73.18516  21.6030        221
 4.31   0.1393    379.1620    123.8833 -45.19     570.4342     1.160     1.102      4.578     73.15205  21.1595        222
 8.58   0.2206    374.0639   1344.7878   1.89      360.335     0.938     0.750      5.629     73.20171  21.6582        223
 6.86   0.1675    381.7127      9.4485  69.49     474.0197     1.231     1.120      7.385     73.11893  21.3605        224
 4.83   0.3573    379.1750    510.5343 -33.43     222.4052     1.023     0.805      3.411     73.16861  22.1821        225
 3.50   0.0490    392.8817   1087.1392   6.31     1621.741     1.464     1.452      4.466     73.11065  20.0250        226
 3.50   0.0038    414.6595    835.7791 -87.54     21162.16     1.861     1.824      5.406     73.17689  17.2361        227
 4.67   0.1211    395.7360    625.2922 -84.56     656.0549     2.068     1.808      7.460     73.14378  21.0076        228
 4.31   0.6443    388.0979   1194.0056 -35.06     123.2739     1.118     1.051      4.232     73.13549  22.8228        229
 4.90   0.4008    388.7987    259.2574 -22.61      198.371     0.937     0.845      3.385     73.20998  22.3063        230
 3.59   0.3060    395.6325    976.0615 -62.57     259.6875     1.294     1.101      3.918     73.16033  22.0139        231
 5.84   0.1386    402.6347    525.0397  64.46     573.3826     2.007     1.236      8.125     73.18516  21.1539        232
 0.00  99.0000    389.9111   1166.6669  82.68    -88.98882     0.731     0.650      0.000     73.12721  99.0000        233
 5.42   0.3335    390.9950     93.6829  -2.17      238.192     1.145     0.767      4.842     73.15205  22.1077        234
 5.30   0.7346    391.8295    682.1611  45.39     108.1789     0.806     0.665      1.860     73.17689  22.9646        235
 5.85   0.3762    390.4073   1063.8210 -19.23      211.168     0.736     0.453      2.471     73.15205  22.2384        236
 3.50   0.0006    460.3263    806.0084 -44.64     135096.7     2.174     2.083      5.695     73.18516  15.2234        237
 7.62   0.0711    410.8039      1.7281 -86.84     869.7321     2.264     0.559      7.460      56.9214  20.7015        238
 5.59   0.3663    400.5119    810.9987  63.07      216.877     0.999     0.673      5.109     73.15205  22.2095        239
 5.11   0.3685    412.4912   1560.8536 -61.91     215.4867     1.786     1.004      4.815     73.12721  22.2164        240
 3.52   0.3087    406.1577    280.5831 -61.55     257.3877     1.142     1.014      3.173     73.16861  22.0235        241
 3.50   0.0213    423.2345    924.7849   9.66     3739.276     1.601     1.597      4.843     73.16861  19.1180        242
 6.00   0.1160    420.4319    132.8687 -27.38     684.9255     2.661     1.886     11.992     73.16033  20.9609        243
 3.50   0.0051    436.9875    250.2835  64.68     15570.86     1.841     1.824      5.417     73.16861  17.5692        244
 5.37   0.2000    414.3479    557.6837  74.95          397     1.626     1.253      6.508     73.11065  21.5530        245
 4.53   0.0878    419.8245    157.4588  31.43     905.3544     1.965     1.661      7.195     73.19344  20.6580        246
 3.50   0.4888    418.3754    772.9217 -64.50     162.5405     1.309     1.134      2.543     73.16033  22.5226        247
 4.87   0.2720    417.9241   1202.9960 -69.00     292.2421     1.158     1.150      4.734     73.18516  21.8856        248
 5.67   0.2716    419.0369   1579.2294 -64.75     292.5842     1.083     0.984      4.867     73.16861  21.8844        249
 6.35   0.3140    416.3668    938.8957  38.22     252.8931     1.261     0.727      5.967     73.11065  22.0427        250
 5.72   0.1382    429.8091    717.6165  55.01     574.5323     2.286     1.725     10.031     73.12721  21.1517        251
 4.53   0.1603    425.8258   1177.8335  37.28      495.723     1.797     1.380      5.189     73.16861  21.3119        252
 8.36   0.4345    413.5051    178.4913 -45.92     182.6888     0.501     0.499      3.004     73.08579  22.3957        253
 4.20   0.0194    466.8871    849.0101  22.49     4091.645     8.631     2.429     17.742     73.16033  19.0203        254
 7.63   0.7342    417.3970   1295.2036  17.97     108.1923     0.762     0.451      2.766     73.14378  22.9645        255
 4.71   0.4945    419.9548   1090.9780  44.64     160.7238     0.782     0.763      2.967     73.17689  22.5348        256
 3.50   0.9757    423.3932   1062.3090 -12.89     81.39985     1.067     0.947      3.100     73.13549  23.2734        257
 3.50   0.0581    432.1249   1420.5641 -14.37     1367.227     1.485     1.348      4.426     73.14378  20.2104        258
 3.50   0.1148    433.0948    149.3635  27.67     691.3144     1.303     1.231      4.093     73.10236  20.9508        259
 4.38   0.2878    425.3532    298.3142 -55.62     275.9796     0.976     0.924      4.336     73.14378  21.9478        260
 3.50   0.0156    449.3134     19.5175  79.54     5076.319     1.697     1.618      5.127     73.11065  18.7861        261
 4.28   0.6502    425.8291   1007.1801  45.92     122.2131     0.782     0.684      2.939     73.16861  22.8322        262
 6.46   0.4111    434.7358    118.2145 -14.46      193.248     1.345     1.271      8.070     73.16033  22.3347        263
 7.60   0.7720    425.6917    239.6654 -43.70     102.8773     0.567     0.339      3.401     73.13549  23.0192        264
 4.11   0.0858    444.1478    120.4551 -35.94     925.3005     1.698     1.528      5.936     73.14378  20.6343        265
 3.50   0.1104    439.0670    303.9563 -83.47     719.8235     1.232     1.225      4.166     73.15205  20.9069        266
 5.59   0.3171    429.2177   1307.1603 -38.83     250.5903     0.807     0.673      4.244     73.17689  22.0526        267
 4.53   0.3654    432.5266    404.7667 -70.31     217.3773     0.964     0.910      4.220     73.14378  22.2070        268
 4.73   0.7552    432.8159    351.6668 -60.34     105.2492     0.947     0.890      3.766     73.19344  22.9945        269
 3.50   0.0139    456.8181     32.7335 -46.68     5703.265     1.680     1.666      5.175     73.16861  18.6597        270
 3.63   0.0895    446.5810    882.2385   5.63     888.0153     2.634     1.650      6.442     73.18516  20.6789        271
 4.13   0.0369    495.3749     81.0525 -72.67     2155.381     2.894     2.604      9.194     73.20171  19.7162        272
 7.07   1.3804    437.0200   1380.9813 -37.80     57.55526     0.808     0.779      4.846     73.16033  23.6498        273
 4.77   0.2178    442.9376    653.5607  68.37     364.8348     1.015     1.000      4.430     73.16033  21.6448        274
 4.62   0.3397    442.8451    172.6565 -62.31     233.8679     1.116     1.013      4.344     73.15205  22.1276        275
 5.99   0.5015    436.5044     52.4720 -49.04     158.3395     0.502     0.497      3.014     73.11893  22.5510        276
 5.83   0.3433    441.0673    958.0090 -28.05     231.5821     0.791     0.768      4.213     73.20171  22.1382        277
 5.57   0.5577    444.5764   1503.9631  -1.95     142.4614     1.086     0.934      4.998     73.16033  22.6658        278
 3.86   0.0056    532.1016    517.1438  27.64     14094.22     5.815     4.781     15.242     73.08579  17.6774        279
 3.50   0.0468    462.7155    466.8858  48.38     1695.227     1.566     1.468      4.794     73.10236  19.9769        280
 3.75   0.3299    452.0206   1531.8784  -2.25     240.8307     1.100     1.075      3.509     73.16861  22.0957        281
 4.64   0.3638    453.4803   1222.8856 -38.14     218.2389     1.148     1.028      4.370     73.11065  22.2027        282
 5.26   0.5490    450.7772   1129.9885 -89.03     144.6938     0.923     0.760      4.121     73.15205  22.6489        283
 3.59   0.1362    460.0517   1094.5823  38.36     583.6253     1.462     1.254      4.392     73.17689  21.1347        284
 3.58   0.0504    470.5653    252.6783  51.79     1576.759     1.802     1.450      5.149     73.15205  20.0556        285
 6.42   0.9358    449.5158   1353.0117   0.90     84.90555     0.774     0.500      4.647     73.16033  23.2277        286
 4.34   0.1756    460.4968    723.4984 -11.52     452.0393     1.812     1.296      5.506     73.10236  21.4121        287
 3.50   0.0356    471.0944    733.2202 -22.49      2228.56     1.539     1.498      4.666     73.14378  19.6799        288
 5.65   0.4298    472.3067   1131.0845  83.07     184.6944     2.225     0.835      3.755     73.09408  22.3839        289
 7.38   1.0334    458.1744   1383.8328 -46.10     76.87283     0.754     0.568      2.376     73.15205  23.3356        290
 4.30   0.1082    488.1921    838.0147 -89.19     733.8599     3.059     1.144      6.384     73.11893  20.8860        291
 5.41   0.3923    466.0153   1196.9625  69.90     202.5801     1.187     1.155      5.974     73.18516  22.2835        292
 3.50   0.0277    476.9968    921.4108 -29.52      2864.05     1.554     1.492      4.656     73.13549  19.4075        293
 5.31   0.3395    464.7791    559.6370  29.06     234.1152     0.976     0.941      3.787     73.18516  22.1264        294
 6.72   0.2506    464.5786    127.0419   1.49     317.1616     1.135     0.944      5.719     73.17689  21.7968        295
 4.29   0.0445    495.0847   1185.2677 -27.37     1782.888     3.570     2.495      8.868     73.11893  19.9222        296
 3.79   0.0703    477.1317   1275.4792  28.82     1130.108     1.446     1.376      4.470     73.11065  20.4172        297
 5.98   0.2843    471.8902    780.0573   2.74     279.2657     1.088     0.935      4.738     73.11893  21.9350        298
 7.44   0.1902    487.8899    422.9886 -48.30     417.6777     1.701     0.984      9.269     73.15205  21.4979        299
 3.60   0.3796    478.1534    680.9650 -64.90     209.3757     1.461     1.071      3.657     73.18516  22.2477        300
 4.00   0.2902    475.0726   1166.8925   1.25     273.6973     1.114     1.099      4.013     73.12721  21.9568        301
 6.34   0.4238    468.3778    662.1902  17.81     187.4798     0.748     0.449      3.420     73.16033  22.3676        302
 3.50   0.0685    483.0456   1069.0903  -3.08     1159.339     1.380     1.345      4.339     73.11065  20.3895        303
 6.47   0.4069    480.0155   1518.1871 -36.50     195.2709     1.487     1.001      7.901     73.16033  22.3234        304
 5.52   0.3683    480.2343   1308.2384   0.78     215.7653     1.206     1.072      4.188     73.16861  22.2150        305
 3.50   0.0072    511.5095   1300.7717 -86.57     11097.11     1.783     1.771      5.049     73.13549  17.9370        306
 4.18   0.0673    503.2634    761.2393  -9.87     1180.211     2.289     2.038      6.717     73.16033  20.3701        307
 5.85   0.6984    485.3267    826.9921  67.42     113.8054     0.897     0.684      3.696     73.18516  22.9096        308
 3.78   0.0328    514.5527   1459.6421  24.54     2422.339     4.804     1.835      9.631     73.17689  19.5894        309
 5.00   0.5655    492.2603    572.8713 -26.66      140.458     1.045     0.854      4.546     73.13549  22.6811        310
 5.07   0.2108    500.9030   1308.7729 -78.62     376.6361     1.327     1.225      5.643     73.11893  21.6102        311
 3.50   0.1168    501.1404    862.1825  21.91     680.0901     1.340     1.317      4.139     73.16033  20.9686        312
 4.66   0.8371    494.4830   1419.8359  -6.11     94.91309     1.068     0.948      4.179     73.16033  23.1067        313
 3.71   0.1665    497.0426    364.6630   3.18     477.0916     1.185     1.114      4.045     73.15205  21.3535        314
 3.60   0.0357    512.4128   1308.8362  87.94     2226.543     1.482     1.437      4.736     73.17689  19.6809        315
 3.50   0.0003    586.9171   1314.4430 -43.15     308625.7     2.422     2.258      5.854     73.13549  14.3264        316
 4.29   0.0910    508.9503    162.6882  -5.14     872.6967     2.454     1.217      6.138     73.12721  20.6978        317
 7.32   0.5667    504.5137    324.4970  71.03     140.0468     0.916     0.902      4.188     73.07751  22.6843        318
 4.20   0.5457    502.0302    441.3327  14.30     145.6171     0.975     0.750      3.422     73.16861  22.6420        319
 3.92   0.0906    512.9186   1177.8134 -27.30     876.7573     1.342     1.259      4.489     73.17689  20.6928        320
 5.02   0.4047    509.0863    451.9476  35.30      196.193     1.219     1.128      6.120     73.11893  22.3183        321
 4.32   1.4645    504.1009   1567.6394 -14.11     54.20225     0.954     0.745      3.530     73.09408  23.7150        322
 4.03   0.1350    518.2291    640.3262 -26.69      588.609     1.532     1.378      5.285     73.14378  21.1254        323
 6.90   0.4615    508.3430    306.9761  -0.24     172.1819     0.744     0.651      3.224     73.17689  22.4600        324
 4.50   0.2975    517.4140   1517.7860  70.71     267.0465     1.137     1.066      4.347     73.16033  21.9835        325
 4.69   0.1981    519.9241    852.2421   0.04     400.9483     1.235     1.187      4.281     73.14378  21.5423        326
 7.17   0.1443    516.0298    165.1891  53.66     550.8951     0.919     0.470      4.582     73.18516  21.1973        327
 7.39   0.4688    519.3243    580.9985  -2.84     169.5458     0.742     0.671      4.342     73.18516  22.4768        328
 6.49   0.3629    527.9760    163.3041  59.16     218.8893     1.193     0.695      5.810     73.14378  22.1994        329
 3.50   0.0487    539.3113    998.3491  74.63     1629.383     1.483     1.429      4.495     73.11893  20.0199        330
 3.50   0.2301    535.1611    402.8271  28.42     345.4232     1.644     1.292      4.726     73.19344  21.7041        331
 3.50   0.0001    630.2494    481.5379 -32.96     547926.8     2.814     2.630      6.249     73.15205  13.7032        332
 3.67   0.3458    543.0117    932.6339 -65.99     229.8178     2.242     0.933      5.154     73.17689  22.1465        333
 4.27   0.8419    530.8337   1565.1139  31.17     94.35718     0.869     0.842      3.771     73.15205  23.1131        334
 3.50   0.0115    571.8231   1241.3000 -77.75     6911.922     2.038     1.669      5.121     73.11065  18.4510        335
 3.50   0.0349    558.0266   1040.2273  -7.54     2277.827     1.649     1.507      4.549     73.16861  19.6562        336
 4.78  81.6765    545.2867    849.4893  -7.45    0.9721056     0.980     0.943      5.470     73.11065  28.0807        337
 5.14   0.0594    573.6470   1335.1353  51.49      1336.27     2.340     1.518      8.999     73.14378  20.2353        338
 3.63   0.0490    570.2410     44.1226  49.86     1621.654     2.383     1.604      6.343     73.14378  20.0251        339
 3.50   0.3573    554.9999    777.1362  23.72     222.5109     1.100     1.075      3.511     73.20998  22.1816        340
 5.14   0.3641    558.2373   1067.7279  74.41     218.2329     1.376     0.874      7.072     73.16033  22.2027        341
 3.50   0.0086    579.6503    143.1599 -48.59     9276.131     1.725     1.693      5.228     73.16033  18.1316        342
 3.66   0.0179    595.7372    781.1780 -56.39     4444.163     3.984     3.666     10.927     73.18516  18.9305        343
 3.55   0.0541    570.7166   1447.0137  21.20     1468.454     3.129     1.935      7.321     73.17689  20.1328        344
 0.00   2.2325    552.7918    964.5013   0.24     35.57264     0.952     0.725      0.000     73.12721  24.1722        345
 3.50   0.0086    581.1983    317.4514  32.75     9270.075     1.792     1.741      5.300     73.20998  18.1323        346
 6.43   0.5222    558.6420   1404.0443  15.36     152.1866     2.178     0.923     10.631     73.17689  22.5941        347
 5.50   0.3302    553.9773    804.0143 -87.40     240.5816     0.784     0.775      4.139     73.15205  22.0968        348
 4.29   0.1385    563.7604    137.6717 -27.73     573.8105     1.275     1.214      4.772     73.16033  21.1531        349
 3.77   0.6367    562.1314    904.2994  60.07     124.7074     1.031     0.851      3.256     73.11893  22.8103        350
 4.21   0.5178    561.8478    839.1899 -61.35     153.5043     1.314     0.783      0.963     73.19344  22.5847        351
 6.36   1.2227    560.0472   1502.5043  89.86      64.9169     0.783     0.500      3.473     73.08579  23.5191        352
 6.33   0.9622    563.3165   1168.9200 -73.02     82.52769     0.999     0.744      4.541     73.11893  23.2585        353
 4.40   0.1334    575.2334   1000.2487 -16.34     595.7001     1.684     1.580      6.637     73.17689  21.1124        354
 6.75   0.5107    566.4789   1114.5490  65.40     155.4776     0.909     0.900      5.451     73.11893  22.5708        355
 6.85   0.5612    564.9891   1249.5447 -27.72     141.6579     1.041     0.670      4.167     73.20171  22.6719        356
 5.70   0.3350    565.9993    630.5061  -2.49     237.0562     0.992     0.772      4.214     73.13549  22.1129        357
 4.81   0.2842    569.1726    112.1811 -50.32     279.5561     0.911     0.851      4.023     73.16861  21.9338        358
 5.94   0.5243    577.0299    737.8967  35.30     151.4444     1.383     1.152      4.923     73.11065  22.5994        359
 9.08   0.8669    569.5020   1108.5065  45.12     91.56717     0.504     0.496      3.026     73.09408  23.1456        360
 5.95   0.4933    578.3694    677.7878  -3.43     161.1033     1.213     1.122      3.390     73.18516  22.5322        361
 6.66   0.2869    573.9882    548.0839  -0.44     276.9458     0.915     0.752      5.240     73.16033  21.9440        362
 5.35   0.4486    577.6382    843.3677  21.53     177.1123     1.545     0.887      5.028     73.16861  22.4294        363
 3.50   0.1130    583.4961     74.2241 -16.70     702.8969     1.322     1.236      3.864     73.14378  20.9328        364
 6.00   0.6235    582.9614   1099.5001 -50.62     127.3229     1.056     0.924      5.322     73.09408  22.7877        365
 5.52   0.5330    577.8422    695.0611  44.00     149.0777     0.836     0.659      0.932     73.16033  22.6165        366
 8.92   0.3232    577.2536    480.9903   0.47     245.9819     0.699     0.435      4.196     73.20171  22.0727        367
 5.47   0.6753    584.4695   1171.3883   9.73     117.7053     1.087     0.994      4.999     73.19344  22.8730        368
 4.68  99.0000    581.7790   1485.1768  42.27     -3.10983     0.801     0.663      3.493     73.16861  99.0000        369
 6.94   4.3118    582.6660   1183.9520   4.29     18.42237     0.741     0.674      4.364     73.14378  24.8866        370
 5.32   0.3285    583.8199    209.8069 -42.27      241.771     0.796     0.686      4.131     73.13549  22.0915        371
 5.23   0.8752    587.5363   1137.9189  -0.67     90.71551     1.053     0.922      4.219     73.11065  23.1558        372
 3.50   0.2641    997.1730    231.6671 -35.31     300.9162     1.149     1.100      3.861     73.16861  21.8539        373
 0.00  99.0000   1598.8207    709.2975   3.07    -68.28827     1.146     0.840      6.877     58.55764  99.0000        374
 3.94   0.0892   1596.6750    653.1274 -15.58     801.5243     2.061     1.927      5.802     65.81311  20.7902        375
 5.60   0.2987   1599.2190     17.0316   3.57     207.5276     1.619     0.795      5.074     57.08077  22.2573        376
 3.56   0.1952   1593.4586    372.2879  57.98     404.8975     1.640     1.347      4.273     72.79519  21.5316        377
 5.54   0.4574    909.3374   1573.8235 -27.17     173.7691     1.073     0.876      4.677     73.18516  22.4501        378
 0.00  99.0000    909.6639    758.6678 -45.16    -25.60058     0.578     0.333      0.000     73.11893  99.0000        379
 5.11   0.1751    907.8714      3.6326 -33.39     394.9681     1.219     0.890      4.770     63.68049  21.5586        380
 4.75   0.2981    907.2199    657.8135  39.55     266.4275     1.174     1.115      5.249     73.14378  21.9861        381
 7.19   0.2652    907.8801    259.1469  47.10     299.3559     0.836     0.675      5.013     73.11065  21.8595        382
 3.50   0.0001    880.5359    182.0380 -36.97     759702.7     3.768     3.384      7.455     73.16033  13.3484        383
 3.89   0.2088    903.5399   1313.7987  84.60     380.8009     1.698     1.165      5.248     73.20998  21.5983        384
 5.13   0.9534    903.1458    733.5557  14.18     83.33473     0.975     0.847      4.508     73.16033  23.2479        385
 3.50   0.0132    899.4399    301.0770  73.75       6038.8     1.683     1.667      5.033     73.14378  18.5976        386
 5.35   0.4633    902.6298    120.2576 -59.53     171.5653     0.997     0.787      3.903     73.18516  22.4639        387
 4.04   0.0611    895.2032    537.0064   4.93     1298.922     2.345     1.895      6.710     73.13549  20.2660        388
 5.97   0.5908    899.4494    449.5103 -24.97     134.3809     0.501     0.497      1.930     73.11065  22.7292        389
 5.06  99.0000    898.7358    378.2324 -44.39    -24.49187     0.743     0.553      0.908     73.16033  99.0000        390
 4.88   0.7316    896.1893    985.8829 -70.45     108.6072     1.264     1.113      4.001     73.16861  22.9604        391
 4.75   0.0221    877.6211    222.5485  89.23     3603.643     8.409     2.434     18.218     73.17689  19.1581        392
 6.40   0.3342    894.1964   1570.0686 -41.29     237.8516     0.822     0.670      3.445     73.19344  22.1092        393
 3.94   0.2188    892.8959   1424.7267 -18.50     362.8454     1.288     1.213      4.275     73.11065  21.6507        394
 3.50   0.0007    879.3774   1591.1613 -62.85     108871.7     2.135     2.017      5.595     73.17689  15.4577        395
 7.60   0.6445    891.3237   1213.3125 -45.58     123.1671     0.564     0.340      2.850     73.09408  22.8238        396
 4.58   0.0932    887.6108    324.2768  15.54     852.7942     2.254     1.609      7.799     73.20171  20.7229        397
 4.03   0.1582    884.7320   1303.1669  74.24      502.399     2.172     1.403      6.732     73.17689  21.2974        398
 4.08   0.3179    887.7652    679.4688 -39.55      249.944     1.357     1.101      4.493     73.16861  22.0554        399
 6.93   1.0729    897.5771    727.8093  19.43     74.05637     0.734     0.455      3.805     73.16033  23.3761        400
 3.67   0.1248    884.8380   1498.8048 -24.85     636.6223     1.336     1.281      4.119     73.16033  21.0403        401
 5.28   0.2119    883.8837    337.3351  18.66     374.6786     1.937     1.260      5.507     73.11065  21.6159        402
 8.05   0.4345    882.3992    443.7480 -17.61     183.0016     0.735     0.458      4.409     73.20998  22.3939        403
 4.92   0.0723    877.1025   1175.5532 -13.24     1097.713     2.087     1.979      7.749     73.06921  20.4488        404
 3.50   0.2588    878.5626    670.3907 -45.07     307.0654     1.548     1.226      4.562     73.17689  21.8319        405
 3.50   0.2235    876.5951    959.5044 -79.21     355.4032     1.298     1.229      4.106     73.14378  21.6732        406
 3.50   0.0003    858.3438   1222.9988  25.48     286841.4     2.506     2.412      6.040     73.21825  14.4059        407
 4.24   0.2239    875.3625    540.0466 -35.41     354.8749     1.105     1.072      4.138     73.17689  21.6748        408
 3.79   0.0877    866.6870    937.9309  44.80     904.8433     2.483     1.546     14.900     73.10236  20.6586        409
 3.50   0.3643    868.4225    642.1518  64.32     218.1605     1.174     1.094      3.406     73.17689  22.2031        410
 5.74   1.7252    868.9875   1434.7231  86.53     46.08432     0.718     0.689      4.124     73.20998  23.8911        411
 4.18   0.3343    865.7755    453.1805 -42.47     237.6963     1.103     0.916      3.922     73.16861  22.1099        412
 4.05   0.6343    863.9379   1477.7690  55.58      125.264     0.983     0.882      4.862     73.16033  22.8054        413
 0.00   7.4586    864.8473   1175.9413  16.55     10.65117     1.140     0.950      6.838     73.15205  25.4815        414
 6.14   0.4529    863.4191    353.5639  42.72     175.5007     1.045     0.954      5.743     73.18516  22.4393        415
 6.49  23.1397    863.0830    772.3165  17.58     3.430857     1.061     0.746      6.367     73.10236  26.7115        416
 5.42   0.2989    861.1080    266.5716  30.30     265.7398     1.458     0.973      4.056     73.13549  21.9889        417
 3.76   0.1086    858.6674   1155.9286 -48.65     731.0341     1.409     1.335      4.598     73.10236  20.8902        418
 6.65   1.0758    861.1178    635.1364 -44.46      73.8008     0.833     0.680      5.000     73.11065  23.3798        419
 4.20   0.2906    859.6251   1553.0254  17.27     273.4954     1.099     0.932      3.761     73.17689  21.9576        420
 4.18   0.1391    857.5358   1338.0935 -71.37     570.9531     1.582     1.377      5.062     73.13549  21.1585        421
 7.36   0.4253    857.3162    573.3596 -45.03     186.7892     1.099     0.647      6.593     73.15205  22.3716        422
 4.73   0.2593    854.7966    543.6133 -69.35      306.292     1.437     1.235      6.065     73.13549  21.8347        423
 9.24  99.0000    854.5144   1428.4879  44.74    -47.05298     0.503     0.496      3.019     73.11065  99.0000        424
 6.94   0.3926    854.1335   1346.3152 -20.02     202.2525     0.909     0.683      5.452     73.11065  22.2853        425
 4.58   0.6393    849.9979   1302.0090  42.45     124.2365     0.798     0.763      3.363     73.13549  22.8144        426
 7.12   0.5329    846.8488   1562.1501  45.17     149.1685     0.834     0.674      4.437     73.19344  22.6158        427
 5.92   0.1786    845.6445    359.7645   5.04     445.0824     1.992     1.388      8.146     73.19344  21.4289        428
 3.50   0.1518    843.8990   1062.4214 -47.16     523.0258     1.301     1.216      3.928     73.11065  21.2537        429
 3.67   0.0725    842.4068   1104.7156  21.78     1095.232     1.862     1.499      5.339     73.15205  20.4512        430
 4.98   0.0442    836.8883   1245.4850 -32.05      1797.89     2.491     2.004      9.455     73.11065  19.9131        431
 6.17   2.2754    840.1484    545.8178 -42.72     34.92511     0.754     0.569      3.449     73.17689  24.1922        432
 4.78   0.4463    836.7659    990.3766  -5.11     178.0335     1.225     1.117      5.198     73.16861  22.4237        433
 8.14   0.3564    837.4343    898.6921 -58.58      222.801     0.978     0.551      5.462     73.11893  22.1802        434
 3.52   0.0618    835.5318    297.0812 -64.89     1285.501     1.452     1.419      4.548     73.11065  20.2773        435
 3.95   0.4971    835.7798   1519.0117 -23.38     159.7963     1.097     1.040      3.628     73.14378  22.5411        436
 3.50   0.2361    834.6545    817.6158  -7.21     336.6783     1.254     1.120      3.805     73.18516  21.7320        437
 3.72   0.0333    868.4527   1102.0677 -58.47      2386.75     2.082     1.859      5.707     73.12721  19.6055        438
 5.90   0.2748    830.7017    403.0029  -2.39     288.9857     0.734     0.666      4.134     73.13549  21.8978        439
 3.50   0.0126    822.0500    652.7532 -52.62     6305.788     1.701     1.691      5.036     73.18516  18.5507        440
 7.20   0.4692    825.9781    597.2470  88.91     169.3843     0.685     0.431      3.344     73.17689  22.4778        441
 5.28   0.7717    823.8243    673.1552 -46.25     102.9876     0.749     0.571      3.517     73.18516  23.0180        442
 5.00   0.6858    821.0287    328.9834 -51.85     115.8662     0.788     0.765      3.848     73.16861  22.8901        443
 3.50   1.5723    818.8474   1397.0322 -31.82     50.54411     1.108     1.032      2.910     73.17689  23.7908        444
 3.85   0.8511    818.0057    777.8375 -67.26     93.35617     1.239     0.766      4.038     73.16033  23.1246        445
 3.88   0.4745    817.8771    701.1688  40.94     167.4142     1.104     1.007      3.561     73.15205  22.4905        446
 7.83   1.2166    818.6559   1574.2931  47.62     65.27141     0.564     0.339      1.779     73.11893  23.5132        447
 4.00   0.2473    814.7400    876.8964  77.42     321.0219     1.579     1.451      4.711     73.10236  21.7837        448
 3.50   0.2954    816.2355    432.0098 -17.05      269.023     1.160     0.868      3.556     73.16861  21.9755        449
 3.71  99.0000    808.9398   1543.1682  66.66    -56.72228     1.106     1.010      6.636     73.16861  99.0000        450
 5.37   0.8255    808.6687    842.8378 -68.45     96.24854     0.893     0.680      3.763     73.16033  23.0915        451
 3.50   0.0143    802.1561   1377.2687 -69.34     5572.881     1.723     1.626      4.948     73.14378  18.6848        452
 3.50   0.0048    797.5828    694.0785 -87.88     16400.22     2.521     1.785      5.992     73.17689  17.5129        453
 3.50   0.0292    799.6658     39.3432 -29.18     2720.912     1.733     1.515      4.954     73.13549  19.4632        454
 7.40   0.9616    800.9561   1595.2843 -83.77     78.55346     0.735     0.666      3.943     69.55329  23.3121        455
 5.69   0.2647    797.9482    177.0328  89.96     300.2057     1.061     0.726      4.053     73.18516  21.8565        456
 4.69   0.1756    793.4384    293.9872 -85.78     452.6505     1.408     1.180      5.725     73.18516  21.4106        457
 5.05   0.3821    788.6844    407.2916  46.63     207.7737     0.932     0.749      4.019     73.10236  22.2560        458
 5.48   0.3333    785.3309   1347.5808  22.57     238.4867     0.899     0.788      4.640     73.20171  22.1063        459
 3.56   0.0350    773.3043   1425.9481 -89.25     2271.148     3.750     2.204      8.066     73.10236  19.6594        460
 6.56  99.0000    780.4772   1265.1068  -1.37    -61.73961     0.771     0.499      3.651     73.11065  99.0000        461
 8.48   0.5807    777.2938    475.3512 -42.18     136.7136     0.567     0.338      3.401     73.10236  22.7105        462
 3.96   0.2059    766.9832    138.3622 -60.94     385.9727     1.496     1.333      5.080     73.18516  21.5836        463
 3.67   0.0539    765.5649    390.1940  -2.87     1474.084     1.469     1.420      4.697     73.16861  20.1287        464
 5.43   0.5017    766.4203    928.8621  17.25      158.414     1.177     0.979      4.397     73.17689  22.5505        465
 4.08   0.3980    763.4435    565.8588 -13.47        199.6     1.026     0.929      3.747     73.15205  22.2996        466
 6.72  11.5565    762.5083   1570.5126 -45.36     6.868869     0.503     0.496      3.021     73.09408  25.9578        467
 4.22   0.2408    756.6255   1339.8118 -44.25     329.8487     2.002     1.006      4.358     73.15205  21.7542        468
 6.65   0.3530    757.2419    104.2812 -82.72     224.9756     0.918     0.632      4.211     73.13549  22.1697        469
 4.66   0.1711    753.7518    194.1373  70.38     464.1424     2.004     1.746      7.873     73.14378  21.3834        470
 4.80  99.0000    751.5210   1078.7631 -58.73    -32.84278     1.015     0.781    -34.844     73.13549  99.0000        471
 6.62   0.4940    751.7948    431.6564 -65.66     160.9507     0.990     0.893      5.844     73.21825  22.5333        472
 7.99   0.3218    746.7986    443.8998  61.00     246.8088     0.998     0.758      5.987     73.12721  22.0691        473
 7.28  99.0000    746.6627   1108.6885 -46.23    -70.54256     0.569     0.337      3.416     73.11893  99.0000        474
 7.69   0.1208    743.7292    839.2839  44.04     657.1293     1.422     1.371      8.534     73.10236  21.0059        475
 3.50   0.0549    741.7888    554.6887 -46.92     1446.816     1.505     1.450      4.657     73.16033  20.1490        476
 6.50   0.3392    745.5015    364.0371  -1.88     234.0262     0.776     0.500      1.953     73.08579  22.1268        477
 3.50   0.0002    723.1733    403.1625 -38.65     376199.3     2.657     2.350      6.078     73.16861  14.1115        478
 4.91   2.4096    738.4103   1271.2405  56.26     32.97754     1.037     0.800      3.799     73.16861  24.2545        479
 3.76   0.1311    737.0958   1156.6532 -47.58     605.4188     1.281     1.247      4.468     73.11065  21.0949        480
 3.87   0.1178    735.1339    648.1766  23.49      674.662     1.280     1.262      4.423     73.17689  20.9773        481
 3.50   0.0012    725.6390    846.8148  -4.11        64423     2.062     2.033      5.671     73.18516  16.0274        482
 7.17   0.3201    728.8027    751.6425  70.75     248.2794     1.122     0.877      6.733     73.18516  22.0626        483
 3.50   0.0829    726.5377   1176.7671 -12.69     958.3425     1.411     1.372      4.434     73.16033  20.5962        484
 4.66   0.6877    727.9813   1542.4713  -1.07     115.5968     0.809     0.691      2.977     73.20171  22.8926        485
 3.83   0.1964    720.4841   1393.5349   9.72     404.3575     1.467     1.242      4.716     73.11065  21.5331        486
 6.38   0.6917    721.2885    260.9367  -8.71     114.8135     0.739     0.673      3.463     73.12721  22.9000        487
 5.88   0.7319    740.3921    918.1597  19.20     108.5752     0.761     0.444      2.252     73.17689  22.9607        488
 3.50   0.0555    714.8723    806.8587 -16.74      1430.78     1.451     1.408      4.504     73.12721  20.1611        489
 7.29   0.2462    739.9937    370.4539   0.01     322.9968     0.825     0.690      4.792     73.22652  21.7770        490
 3.50   0.0604    708.0434   1162.3575  15.51     1316.457     1.443     1.401      4.434     73.16033  20.2515        491
 5.93   0.4729    709.3591    193.3632  45.70      168.102     1.026     0.876      5.085     73.19344  22.4861        492
 4.14   0.0492    703.2103   1337.6471 -71.72     1614.875     2.232     1.846      6.471     73.19344  20.0297        493
 5.46   0.2399    706.7255    537.0632  22.78     331.0298     1.109     1.008      5.132     73.11893  21.7503        494
 3.50   0.0346    701.9611    950.9947 -43.79     2299.331     1.639     1.516      4.630     73.16861  19.6460        495
 7.39   0.8009    702.3176    632.3156 -45.10     99.12958     0.563     0.341      2.889     73.10236  23.0595        496
 5.80   1.0422    700.5140    649.9135  -0.13     76.17332     0.779     0.500      0.766     73.10236  23.3455        497
 4.32   0.1161    698.0168    581.0302   9.81     684.8606     2.375     1.335      6.070     73.18516  20.9610        498
 6.55   7.9780    696.1909   1199.1677  41.45     9.958892     0.741     0.566      1.270     73.16033  25.5545        499
 5.28   0.6678    695.3126    275.2812 -45.20     118.9087     0.919     0.741      2.553     73.11893  22.8620        500
 4.12   0.0844    690.8043   1212.2382  38.83     940.8464     1.656     1.406      5.440     73.16033  20.6162        501
 4.41   0.3500    685.6290   1212.3180 -31.36      227.036     1.336     1.159      4.700     73.16033  22.1598        502
 3.54   0.2364    690.9828    314.4811 -89.34     336.1696     1.363     1.269      3.396     73.18516  21.7336        503
 5.58   0.0436    682.1815    470.6699 -71.25     1822.703     3.997     3.773     18.480     73.19344  19.8982        504
 8.13   0.2756    688.3418    666.6924  46.63     288.0372     0.569     0.337      3.086     73.10236  21.9014        505
 3.50   0.0391    684.5341    642.6834 -85.70     2031.381     1.677     1.518      4.802     73.09408  19.7805        506
 3.50   0.2603    686.5600    129.1386 -74.02     305.2269     1.213     1.118      3.899     73.16033  21.8384        507
 7.14   0.8229    686.3936   1043.2445  19.21     96.57951     0.756     0.445      4.214     73.18516  23.0878        508
 4.64   0.0419    680.1719    541.9000 -72.99     1895.899     2.845     2.013      9.090     73.10236  19.8555        509
 6.08   0.1816    684.0917    399.3588  67.60     437.1548     1.243     1.072      6.233     73.09408  21.4484        510
 7.31   2.4285    683.1840   1564.3816  71.56     32.71638     0.750     0.447      4.500     73.16033  24.2631        511
 7.70   0.4129    681.9842    388.5002 -87.74     192.3665     0.807     0.499      3.866     73.14378  22.3397        512
 6.79   0.3531    676.4925    199.9110   0.69     224.8169     0.787     0.500      2.781     73.09408  22.1704        513
 6.35   2.4323    674.9564   1162.9944   2.98     32.67588     0.792     0.783      4.753     73.18516  24.2644        514
 5.27   0.3228    671.8871    229.7756 -40.14     246.0739     1.169     1.030      3.895     73.15205  22.0723        515
 6.88   0.5562    672.5187    424.4439 -49.40     142.7733     0.507     0.489      2.744     73.12721  22.6634        516
 5.53   0.2014    668.2863   1219.9636 -52.73      394.382     1.505     1.346      6.216     73.15205  21.5602        517
 7.54   0.4563    668.8893    526.1393  47.57     174.0471     0.840     0.672      5.037     73.12721  22.4483        518
 4.82   0.6397    665.7657   1178.5731   3.32     124.2127     0.954     0.918      4.091     73.16861  22.8146        519
 4.90   2.5747    665.4871   1068.5939  69.03     30.85549     0.931     0.807      3.058     73.15205  24.3267        520
 6.86   0.4840    661.6160     80.7631  17.24     164.1985     0.744     0.454      3.433     73.18516  22.5116        521
 3.50   0.0012    647.4363   1462.9254 -64.41     64091.97     2.018     1.955      5.431     73.14378  16.0330        522
 3.93   0.1256    653.7332    869.3082 -77.19     632.3872     1.333     1.243      4.461     73.12721  21.0475        523
 6.76   0.2291   1533.4886    973.8960 -50.72     346.4497     1.369     0.971      6.852     73.07751  21.7009        524
 7.63   0.5041    646.2842   1152.9969   7.20     157.6091     0.748     0.678     -0.245     73.15205  22.5560        525
 4.38   0.1907    644.7533    651.3694 -64.65     416.8886     1.230     1.185      4.977     73.19344  21.4999        526
 3.50   0.0079    638.8298    535.1763  50.02        10072     1.838     1.771      5.396     73.15205  18.0422        527
 4.27   0.2230    640.3396    274.9371 -42.66     356.1064     1.232     1.077      4.704     73.13549  21.6710        528
 7.94   0.2111    636.8403    551.5649  84.77     376.5855     1.262     0.484      4.859     73.18516  21.6103        529
 7.52   0.3673    638.2928    390.9521  -9.02     216.1416     0.744     0.677      3.639     73.10236  22.2132        530
 4.96   2.8562    630.2939    853.7196 -14.08     27.79832     0.980     0.851      3.349     73.11065  24.4400        531
 3.50   0.1111    629.7246    804.6202  19.19      715.691     1.308     1.237      4.159     73.18516  20.9132        532
 5.71   2.4403    628.1733    940.8096  43.14     32.55849     0.793     0.684      3.390     73.16033  24.2683        533
 7.15   0.2600    625.9575    131.7406 -87.62     305.5506     0.677     0.438      3.865     73.15205  21.8373        534
 3.50   0.0770    622.6840   1580.3485  20.28     1030.739     1.414     1.383      4.588     73.11065  20.5171        535
 8.00   6.9299    625.4883   1286.4780  45.77     11.45475     0.506     0.493     -7.050     73.09408  25.4025        536
 8.68   0.5033    624.0000    341.9937   0.00     157.7837     0.858     0.289      3.201     73.12721  22.5548        537
 7.52   0.6039    649.6454   1159.5402 -17.03     131.5305     0.987     0.832      5.920     73.14378  22.7524        538
 4.96   0.2478    617.2538   1150.4204 -12.75     320.6488     2.287     1.393      5.204     73.17689  21.7849        539
 6.66   0.3482    618.5089     93.3388 -32.37     228.0791     1.211     0.851      5.944     73.12721  22.1548        540
 3.94  99.0000    615.0223   1233.4691  87.76    -5.277609     1.100     0.935      4.300     73.18516  99.0000        541
 5.29   0.4887    615.6664    117.0446  -5.76     162.5276     0.738     0.663      3.142     73.14378  22.5227        542
 6.09  18.3431    612.8040   1366.5983  39.27     4.330469     1.171     0.988      3.134     73.14378  26.4587        543
 7.68   0.2513    614.2545    288.0167  -0.90     316.3343     0.679     0.435      4.072     73.18516  21.7996        544
 4.91   9.1955    610.5709    994.0137  -0.22     8.643251     1.148     0.951      4.534     73.18516  25.7083        545
 8.13   0.5276    608.3402   1334.2922 -68.31     150.5044     1.306     0.899      7.835     73.11893  22.6061        546
 5.46  99.0000    610.2504    961.5877 -71.92    -2.187218     0.706     0.464      2.956     73.19344  99.0000        547
 4.16   0.8948    608.4410    943.8952  30.88     88.70898     1.092     0.996      3.779     73.09408  23.1801        548
 5.55   0.5825    606.6353   1009.8097 -69.38     136.4179     0.873     0.677      3.651     73.16861  22.7128        549
 3.53   0.0678    604.6259    584.8419 -61.11     1171.839     1.443     1.381      4.405     73.20171  20.3778        550
 5.81   1.1109   1503.3109   1310.4329  16.06     71.49306     0.983     0.947      4.812     73.13549  23.4143        551
 3.96   0.0824   1545.0631    861.9321  46.11     964.0393     1.840     1.611      5.722     73.12721  20.5898        552
 7.45   1.1887    603.2000    511.9024 -30.59     66.80717     1.053     0.647      4.799     73.12721  23.4879        553
 6.56   0.9717    601.7997    763.1479  43.14     81.82409     0.823     0.670      3.284     73.20998  23.2678        554
 5.31   1.2838    599.8062   1424.6854  18.29     61.88348     0.989     0.881      5.027     73.15205  23.5711        555
 6.79   0.6417    598.3499    666.8875 -73.86     123.7421     1.018     0.751      6.109     73.11893  22.8187        556
 7.22   0.6731    595.8287   1124.1578 -45.06     118.0816     0.754     0.572      3.941     73.18516  22.8695        557
 5.63   0.3479    592.9840    881.1221  89.40     228.4346     1.257     0.890      5.848     73.17689  22.1531        558
 8.67   0.5181    592.3361   1355.7000  46.86     153.2519     0.564     0.340      2.945     73.11893  22.5865        559
 5.13   0.3356   1592.2811   1383.3767 -13.23     236.6978     1.487     1.105      4.102     73.15205  22.1145        560
 5.46  15.5708   1537.7726    504.2819 -81.92      5.10264     1.314     0.918      2.395     73.16033  26.2805        561
 6.43   0.5517   1588.4667   1334.4884  43.34     143.9456     0.508     0.491      3.047     73.12721  22.6545        562
 7.02   0.2490   1551.2142    131.4193  70.62     319.0315     0.739     0.454      3.830     73.15205  21.7904        563
 6.34   0.3939    914.5125    124.0380 -87.80     201.6361     0.795     0.699      3.724     73.14378  22.2886        564
 3.56   0.0684   1583.8901   1107.3706  31.05     1161.721     1.439     1.413      4.449     73.13549  20.3872        565
 3.99   0.1669    911.3047    999.6408  25.14     475.5936     1.228     1.183      4.334     73.10236  21.3569        566
 4.90   0.2726   1590.2817    565.3278  11.70     291.2711     1.032     0.899      4.322     73.10236  21.8893        567
 3.50   0.0961    911.7652    836.9797  46.82      826.817     1.343     1.296      4.224     73.17689  20.7565        568
 3.50   0.0328   1541.5651    652.9879 -80.24     2421.513     1.572     1.520      4.885     73.17689  19.5898        569
 5.36   1.9244   1553.0010   1370.2423 -89.95     41.30028     0.684     0.428      3.098     73.18516  24.0101        570
 0.00  99.0000   1570.4656   1337.0802  49.64    -67.61197     0.857     0.675      0.000     73.11065  99.0000        571
 5.76   0.9219    913.6678   1117.9517   2.16     86.16183     1.082     1.049      1.466     73.14378  23.2117        572
 5.56   0.4766   1561.7994    384.6131 -75.58     166.6915     1.476     0.890      5.179     73.16033  22.4952        573
 5.30   0.3621   1584.9180   1068.0917 -36.80     219.3375     1.155     1.083      4.862     73.13549  22.1972        574
 0.00  99.0000    916.5121   1111.4973 -71.08    -1.617044     0.937     0.420      0.000     73.07751  99.0000        575
 6.59   0.3366   1585.3274    639.9982   1.63     236.1357     0.742     0.664      3.993     73.19344  22.1171        576
 3.50   0.0246   1540.7145    133.3124 -50.71     3229.304     1.564     1.554      4.807     73.11065  19.2772        577
 3.72   0.4757   1580.4880   1412.9047  69.04     166.8245     1.381     1.137      3.998     73.07751  22.4944        578
 0.00   6.1242   1556.4828    736.5074 -43.82     12.96749     0.503     0.497      0.000     73.12721  25.2679        579
 3.87   0.2387   1574.3569   1489.9440   4.25     332.8228     1.022     0.938      3.306     73.15205  21.7445        580
 3.99   0.1994   1514.5411   1545.7484  75.59     398.3782     1.713     1.256      5.808     73.13549  21.5493        581
 3.50   0.0014   1562.5902    302.4592 -49.50     55904.45     1.981     1.944      5.555     73.20998  16.1814        582
 3.55   0.0373   1565.5569     20.1926 -73.30     2129.982     1.533     1.499      4.779     73.17689  19.7291        583
 3.50   0.0526   1569.3970     90.9337 -30.49     1511.825     1.511     1.425      4.518     73.20171  20.1012        584
 3.50   0.0049   1551.5663    680.5849 -23.92     16201.76     4.963     4.156     11.812     73.16861  17.5261        585
 3.67   0.0544   1564.7480    782.9547 -73.93     1460.414     2.173     1.589      5.767     73.16861  20.1388        586
 3.96   0.7621   1561.7164   1564.7347  83.74     104.1665     1.068     0.926      3.755     73.10236  23.0057        587
 3.50   0.0793   1560.2748    859.8225  73.43     1002.165     1.395     1.346      4.484     73.17689  20.5477        588
 3.50   1.0057   1551.0110   1512.0599  29.59     79.05036     0.781     0.773      2.397     73.20171  23.3052        589
 3.50   0.0014   1557.0215    485.9543 -57.57     55485.39     1.991     1.950      5.530     73.17689  16.1896        590
 3.93   1.1257   1537.6398    261.7019  47.27     70.52393     0.972     0.868      3.764     73.10236  23.4292        591
 0.00   0.8830   1550.4930    350.8476  52.56     89.90569     0.879     0.671      0.000     73.10236  23.1655        592
 6.54   0.2920   1553.0337   1231.4982  -0.59     271.8489     0.811     0.695      4.637     73.08579  21.9642        593
 3.68   0.2818   1535.2637   1427.3330 -46.27     281.7824     2.123     1.077      4.797     73.11893  21.9252        594
 6.78   1.5201   1540.4457    328.4951  25.93     52.21945     0.501     0.496      2.890     73.09408  23.7554        595
 6.09   0.5778   1450.3645   1223.7706 -72.33     137.5193     1.128     0.669      4.246     73.16033  22.7041        596
 4.16   0.1647   1549.9670   1220.5962 -11.51     482.5212     1.264     1.125      4.448     73.17689  21.3412        597
 4.01   0.2821   1522.6630    377.0125  59.76      281.734     1.735     0.951      5.809     73.18516  21.9254        598
 4.91   0.6234   1534.7495    918.2697 -19.33     127.3886     0.935     0.832      3.586     73.12721  22.7872        599
 4.61   0.4081   1518.0699     83.4022   9.88     194.7876     1.318     1.191      5.512     73.19344  22.3261        600
 4.23   0.2097   1531.5778    414.1128  13.39     378.9168     1.677     1.487      5.537     73.16033  21.6036        601
 5.56   0.3365   1527.3539    731.6343  62.03     236.2269     1.327     1.082      4.756     73.18516  22.1167        602
 5.32   0.3876   1521.5106     12.5315  -7.76     204.8309     1.017     0.992      4.829     73.11065  22.2715        603
 8.01   0.8724   1493.2001    870.4006  70.78     91.09605     0.764     0.445      4.370     73.17689  23.1513        604
 3.99   0.2326   1513.5579    481.9728 -80.06     341.8085     1.223     1.123      4.264     73.20171  21.7155        605
 3.50   0.0106   1513.8682    390.9596   2.32     7521.206     1.709     1.671      5.096     73.16033  18.3593        606
 5.32   0.5954   1526.0801    877.5831 -18.35     133.4709     1.002     0.726      4.291     73.17689  22.7365        607
 4.68   0.3039   1487.1720     76.3101  -5.75     261.3643     1.301     1.181      4.773     73.13549  22.0069        608
 3.50   0.0918   1503.1475    721.7911 -72.44     865.5394     1.380     1.324      4.370     73.20171  20.7068        609
 4.72   0.2645   1519.0063   1099.2742 -87.46     300.5165     1.626     1.220      5.837     73.20171  21.8553        610
 0.00  99.0000   1511.3092      3.6534  43.28    -29.67068     0.572     0.336      0.000        63.69  99.0000        611
 6.27   0.4068    918.8821   1343.1436  45.01     195.2277     0.824     0.663      3.710     73.12721  22.3236        612
 5.33   0.3121   1502.9550   1095.0253 -26.75     254.7066     1.109     0.888      4.604     73.19344  22.0349        613
 3.50   0.0026   1506.1284    267.6196 -39.06     30045.52     1.890     1.876      5.440     73.20171  16.8556        614
 3.50   0.1368   1481.3833    573.6016 -45.53     580.7259     2.213     1.470      5.694     73.14378  21.1401        615
 5.35   0.8047   1501.3430   1412.0780  75.35     98.71614     1.029     0.740      4.626     73.14378  23.0640        616
 5.43   0.2209    915.7727    251.4663  56.44     359.7488     1.873     1.097      6.083     73.16033  21.6600        617
 3.50   0.4689   1497.7295    842.8806  35.10     169.3584     1.131     1.083      3.805     73.11893  22.4780        618
 4.09  99.0000    931.4003   1116.4285 -40.25    -60.19737     1.036     0.947      2.476     73.13549  99.0000        619
 7.42   1.1441   1496.3085   1123.3169 -44.54     69.40444     0.559     0.342      3.355     73.11893  23.4465        620
 6.18   0.4177    921.4901   1197.6259 -53.94     190.1872     1.657     1.149      9.945     73.14378  22.3520        621
 4.53   0.3696   1437.7632    645.7658   2.75     215.0559     1.329     0.990      4.780     73.19344  22.2186        622
 6.05  99.0000   1495.3975    928.7016 -57.86    -75.09864     0.909     0.546      5.120     73.13549  99.0000        623
 5.31   0.9961   1466.6744   1126.9293  27.03     79.70193     1.258     0.872      7.547     73.10236  23.2963        624
 4.37   1.7588   1497.0087   1231.3116 -88.43     45.17335     0.733     0.664      3.049     73.16033  23.9128        625
 4.70   0.1776   1474.0746    996.8602 -16.36     447.1522     2.590     1.317      6.698     73.13549  21.4239        626
 6.97   0.6559    924.5815    309.2061 -20.12     121.1068     0.742     0.450      2.524     73.14378  22.8421        627
 3.97   0.4284    924.8867     44.8511 -26.12     185.3527     1.060     0.954      3.724     73.11893  22.3800        628
 7.02   2.2655   1482.3333    766.6622  44.81     35.05476     0.579     0.332      3.476     73.12721  24.1881        629
 5.83  99.0000    924.0271    932.7233  87.69    -14.16263     0.729     0.685      1.211     73.15205  99.0000        630
 4.61   4.4358   1475.9445    197.0222   9.99     17.91764     1.192     0.971      3.822     73.18516  24.9168        631
 3.65   0.0803    927.3818   1321.0515 -60.20     989.5954     1.433     1.344      4.428     73.17689  20.5614        632
 0.00  20.4005   1470.6782    428.6792 -45.05     3.892844     0.567     0.339      0.000     73.12721  26.5743        633
 5.40   1.2844   1496.5206    671.9360   1.87     61.81182     0.770     0.499      2.931     73.10236  23.5723        634
 6.68   0.6553   1477.1406   1022.3224  47.76     121.1905     1.154     0.627      4.952     73.12721  22.8413        635
 3.50   0.0046   1418.4011   1124.8586 -77.49     17209.77     2.022     1.866      5.490     73.20998  17.4606        636
 8.12   0.3933   1451.5862   1163.1904 -20.41     201.9358     0.763     0.442      3.719     73.13549  22.2870        637
 5.83   1.3021    946.8134     42.6076  50.12     60.97862     1.105     0.675      3.317     73.11065  23.5871        638
 5.27   1.0805   1402.8489   1361.6335 -74.33     73.54851     1.115     0.938      4.543     73.17689  23.3836        639
 5.49   0.3849    946.4409    131.7579 -14.69      206.454     1.108     1.032      5.415     73.17689  22.2629        640
 7.16   0.7297   1474.9755   1569.0132  31.13     108.8737     0.800     0.795      4.803     73.15205  22.9577        641
 5.21   0.9569    925.0620    664.6942  35.82     82.98662     0.997     0.819      4.451     73.11893  23.2525        642
 5.40   0.9512    940.5189    724.4358  41.32     83.51823     1.064     1.034      5.993     73.15205  23.2455        643
 3.50   0.8126   1452.4904    389.9434  -2.31     97.71936     1.051     0.921      2.691     73.11893  23.0750        644
 4.82   0.1265    937.3098    514.6938  60.38      627.621     2.256     1.650      7.915     73.09408  21.0558        645
 3.50   0.0056    928.7859   1176.9735 -63.34     14307.76     1.788     1.770      5.172     73.16033  17.6611        646
 4.99   0.6636   1456.7534    610.2356 -77.31     119.7781     0.967     0.854      3.203     73.18516  22.8541        647
 3.50   0.1321    946.7559    443.5303 -11.64     601.4461     1.245     1.172      3.891     73.14378  21.1020        648
 4.15   0.1709   1437.7389   1269.7083 -34.43     464.6194     1.244     1.181      4.573     73.13549  21.3823        649
 3.55   0.0455    938.2715   1065.6440  74.35     1745.738     1.516     1.424      4.811     73.13549  19.9451        650
 6.58  99.0000   1453.9989    921.0148   0.10    -71.95631     0.618     0.610      2.595     73.13549  99.0000        651
 0.00  99.0000   1454.6998   1143.3197  43.89    -29.36129     0.557     0.343      0.000     73.06921  99.0000        652
 3.50   0.1966   1431.2603    339.1749  19.84     404.1705     1.931     1.296      4.630     73.17689  21.5336        653
 6.94   1.5375   1453.4241    165.2227  19.37     51.68714     0.747     0.453      3.051     73.17689  23.7665        654
 4.67   0.2304    948.6108    265.9981  16.72     344.6766     1.079     0.933      4.223     73.13549  21.7065        655
 3.50   0.0315   1438.7891    617.5158  -9.75     2524.366     1.518     1.457      4.632     73.16033  19.5446        656
 3.50  99.0000   1436.2822    385.9742 -10.44    -100.8556     0.726     0.665      4.359     73.15205  99.0000        657
 4.85   3.2263    949.4341    825.3799 -67.70      24.6293     0.963     0.841      1.472     73.16861  24.5714        658
 3.50   0.0006   1433.4287   1089.0946 -40.78     135724.5     2.216     2.101      5.682     73.12721  15.2184        659
 4.96   0.4908    951.0420     59.8504 -55.61     161.9143     1.223     1.146      4.600     73.17689  22.5268        660
 4.48   0.0505    985.7009    452.4940  66.36     1571.498     2.192     1.917      7.618     73.08579  20.0592        661
 4.81  99.0000   1448.4435     86.3038 -75.48    -16.10808     0.964     0.937      2.331     73.09408  99.0000        662
 5.81  99.0000    958.6643    891.9353   5.72    -82.29311     0.739     0.656      4.035     73.11893  99.0000        663
 6.70   1.8194    952.3122   1502.9946   2.63     43.65941     0.732     0.667      3.730     73.14378  23.9498        664
 6.60   0.3197    962.8923    422.3037  19.58     248.2905     0.935     0.675      4.942     73.08579  22.0626        665
 0.00  99.0000   1445.3502    729.8088 -28.36    -79.85282     1.132     1.047    -31.464     73.19344  99.0000        666
 8.96   0.3059   1431.5128   1278.9904 -32.00     259.7405     0.800     0.312      3.849     73.16033  22.0137        667
 6.33   0.5357    975.5884     70.2583 -18.53     148.3773     0.739     0.456      3.276     73.19344  22.6216        668
 5.21  99.0000   1422.9612   1595.5355  27.20    -24.46836     1.054     0.653      0.955     68.95866  99.0000        669
 3.50   0.0244   1434.2783    223.0297 -38.73     3258.221     1.575     1.529      4.763     73.14378  19.2675        670
 3.68   0.1060    949.7264    652.6766  89.27     748.8604     2.209     1.529      6.154     73.11893  20.8640        671
 6.10  99.0000    954.1638   1027.8688  44.93    -11.81665     0.809     0.675      3.708     73.16861  99.0000        672
 6.84   2.2872    983.8214    952.2770 -36.11     34.74176     1.047     0.527      3.985     73.16861  24.1979        673
 5.98   0.4728   1391.8539   1532.9331 -74.35     167.9874     1.314     1.120      4.174     73.13549  22.4868        674
 3.50   0.0342   1407.1237    306.5707 -33.37     2320.482     1.524     1.452      4.532     73.15205  19.6361        675
 3.94   0.2099    964.0480    414.7322 -20.48     378.4737     1.256     1.116      4.295     73.14378  21.6049        676
 6.92   0.2529    973.0498    546.6980 -15.16      313.732     1.003     0.749      5.537     73.06921  21.8086        677
 3.50   0.4240   1435.2114   1345.9427 -76.43     187.4891     1.103     1.098      3.738     73.19344  22.3676        678
 5.44   1.0544    976.1675   1279.1414 -43.84     75.37172     0.813     0.681      4.780     73.17689  23.3570        679
 3.50   0.0028    983.9273    556.8638 -47.92     27972.91     1.891     1.871      5.456     73.11065  16.9332        680
 6.11   0.3113   1410.6138    365.7228 -69.34     255.3877     2.048     0.652      5.102     73.20171  22.0320        681
 5.38  99.0000   1387.7228   1583.7048   3.16    -104.0825     0.928     0.853      4.982     73.09408  99.0000        682
 3.62   0.0493   1414.4304   1385.1575  32.96     1612.908     1.424     1.390      4.632     73.19344  20.0310        683
 5.58   4.3482    977.7038   1064.9983  -4.34      18.2703     0.728     0.665      3.773     73.15205  24.8956        684
 5.97   2.1160   1419.1465    428.0791 -41.74     37.52713     0.853     0.657      2.449     73.11893  24.1141        685
 0.00  99.0000   1417.7028    105.0311 -11.65    -40.67086     0.750     0.672      0.000     73.10236  99.0000        686
 5.35   0.5481    981.3090   1485.5173 -20.65      144.895     0.951     0.926      5.112     73.12721  22.6474        687
 3.73   0.1209   1410.1467    348.3118  48.27     656.8787     1.824     1.430      5.461     73.11893  21.0063        688
 4.79   0.2123    977.1621    451.1198 -80.29     374.0793     1.395     1.281      6.018     73.14378  21.6176        689
 4.03   0.2287   1405.3202    328.2343 -52.99     347.2804     1.263     1.192      4.434     73.14378  21.6983        690
 3.50   0.0011   1392.3256    112.7033 -57.14     75474.84     2.043     1.990      5.661     73.11893  15.8555        691
 4.16   0.0850    979.9540    796.3262 -60.74     934.7232     1.897     1.679      5.483     73.12721  20.6233        692
 7.69   1.4755   1401.2513     61.0088  -0.45     53.87836     0.683     0.434      3.253     73.20171  23.7215        693
 3.50   0.0112   1387.8695   1427.1104 -78.66     7057.055     1.676     1.662      4.926     73.10236  18.4284        694
 5.43   5.7498   1305.7584    572.4661 -28.68     13.81813     1.038     0.790      2.589     73.16033  25.1989        695
 5.53  99.0000   1028.8491    945.8722 -42.73     -51.5349     0.837     0.654      4.486     73.11065  99.0000        696
 4.18   0.0936   1399.7241   1029.9249  30.94     848.7165     1.676     1.466      5.743     73.11893  20.7281        697
 7.24   0.2620   1388.1443   1100.9866  85.64     303.3436     0.920     0.753      5.519     73.19344  21.8452        698
 5.40   0.8933   1396.0151   1101.5850   5.73     88.94581     0.989     0.763      4.752     73.16033  23.1772        699
 0.00  99.0000   1386.4980    675.9568   0.02    -6.688883     0.789     0.500      0.000     73.09408  99.0000        700
 8.03   0.6978   1402.0109   1343.7205 -84.02      113.888     0.758     0.680      4.547     73.17689  22.9088        701
 4.65   0.0127   1358.5231   1133.8226  74.98      6237.31     9.508     6.594     26.186     73.16033  18.5625        702
 3.50   0.0320   1389.4053    711.6841  81.49     2484.717     1.589     1.516      4.666     73.15205  19.5618        703
 6.99   0.1868    990.2462      7.4625 -28.26     422.6488     1.469     1.124      7.855     72.71195  21.4851        704
 3.50   0.0001   1365.6389   1158.5627 -61.99     749273.2     2.775     2.613      6.174     73.18516  13.3634        705
 3.50   0.0567   1391.3113   1037.2988 -67.49     1400.073     1.494     1.448      4.562     73.08579  20.1846        706
 6.34   0.2931   1027.8447    179.1574 -46.03      271.156     1.273     0.867      6.134     73.18516  21.9670        707
 8.07   0.9173   1384.5070   1383.5040  -0.31     86.52441     1.068     0.500      6.118     73.08579  23.2072        708
 4.49   0.3448   1378.1963    317.5049 -18.68     230.3202     1.323     1.092      4.993     73.13549  22.1442        709
 4.99   0.4661   1027.0353    462.2316  -5.81      170.464     0.873     0.743      1.434     73.16861  22.4709        710
 4.34   0.6017   1027.3413    350.5627 -39.74     132.0611     1.013     0.865      4.012     73.16861  22.7481        711
 4.72   0.1513   1351.2303    150.2305  80.68     525.2593     2.162     1.660      6.448     73.17689  21.2491        712
 3.62   1.3458   1345.8954    192.6021  62.75      59.0294     1.027     0.942      3.355     73.15205  23.6223        713
 3.50   0.0097   1371.5310   1017.4489 -37.34      8226.46     1.902     1.751      5.256     73.13549  18.2620        714
 4.39   1.0538   1026.6232    605.9142  -0.73     75.38625     1.056     0.926      3.626     73.15205  23.3568        715
 4.61   0.9427   1367.3762    147.6849  44.63     84.27545     1.049     0.928      2.372     73.15205  23.2357        716
 0.00  99.0000   1368.1707   1068.1990  45.38    -120.9314     0.745     0.564      3.376     73.12721  99.0000        717
 5.57   0.2554   1369.6470   1213.9382 -16.30     311.0446     1.108     0.943      6.052     73.14378  21.8179        718
 5.44  99.0000   1311.2119    269.9725   1.04    -93.95591     0.698     0.409      0.524     73.17689  99.0000        719
 3.94   1.0120   1276.5571    341.7841  80.92      78.5247     0.954     0.928      3.993     73.17689  23.3125        720
 3.50   0.0250   1264.4229    806.2896 -18.43     3178.388     1.560     1.538      4.750     73.15205  19.2945        721
 7.00  99.0000   1307.3242    793.3080 -45.86    -32.58071     0.562     0.341      2.708     73.11065  99.0000        722
 3.50   0.0990   1094.6395   1525.1777 -30.46     802.4822     1.334     1.266      4.188     73.17689  20.7889        723
 6.63   0.5969   1361.7042   1110.3534  56.98     132.9634     1.183     0.776      4.868     73.08579  22.7407        724
 4.76  99.0000   1351.8541    473.8246 -48.19    -39.95145     0.815     0.672      1.673     73.20171  99.0000        725
 5.27  99.0000   1369.7343    705.0079   5.00    -112.5215     0.719     0.666      3.947     73.20998  99.0000        726
 4.34  99.0000   1359.8328   1242.1254  42.19    -72.73817     0.788     0.679      0.083     73.14378  99.0000        727
 7.35   0.5396   1351.7126    965.6663 -42.38      147.168     0.557     0.342      2.135     73.11893  22.6305        728
 5.66   0.0812   1329.6985   1138.2083 -78.58     977.9728     2.447     1.630      9.228     73.12721  20.5742        729
 8.03   0.4889   1098.2954    861.6458  42.19     162.3705     0.569     0.337      3.052     73.09408  22.5237        730
 8.52   0.6156   1361.5084    525.3306 -89.77     128.9916     0.931     0.470      4.768     73.11893  22.7736        731
 5.18   0.7232   1361.7424    389.2371 -25.90     109.8699     1.318     0.771      4.073     73.16861  22.9478        732
 5.33   0.5224   1302.4600     40.9724  88.35     152.1514     0.798     0.697      3.707     73.18516  22.5943        733
 3.84   0.4423   1345.2644    603.6066 -53.36     179.7408     1.351     1.168      3.515     73.20171  22.4134        734
 4.45   0.2529   1298.1709     52.2045  42.58     314.2171     1.145     1.089      4.495     73.16033  21.8069        735
 6.46   0.8045   1305.3463    842.9009  21.88     98.64399     1.169     1.048      4.110     73.07751  23.0648        736
 3.50   0.0273   1306.4845    668.0395 -50.87      2909.07     1.914     1.586      5.176     73.15205  19.3906        737
 3.50   0.0195   1328.8699    654.2535  11.69     4068.009     1.733     1.657      5.249     73.12721  19.0265        738
 3.51   0.0961   1331.7373    105.7020 -22.36     826.4067     1.408     1.294      4.296     73.12721  20.7570        739
 3.92   0.1850   1387.8553    805.0548  64.31     429.4837     1.193     1.139      4.442     73.15205  21.4676        740
 3.50   0.0028   1318.9818    658.3548 -10.07     28335.45     1.880     1.869      5.396     73.17689  16.9192        741
 8.15   3.2709   1316.2993   1355.6572  42.83     24.26577     0.566     0.339      3.130     73.08579  24.5875        742
 3.50   0.0001   1220.4615    993.4240 -37.25     906549.2     7.178     6.670     11.113     73.18516  13.1565        743
 6.41   1.1334   1314.3456   1132.9926   3.01     70.16588     0.742     0.668      0.305     73.22652  23.4347        744
 3.58   0.0672   1258.4662    430.8267  -5.62     1182.375     2.268     2.110      6.783     73.16861  20.3681        745
 7.00   0.8487   1338.1383   1478.8722  41.74     93.57539     0.831     0.669      4.986     73.12721  23.1221        746
 7.08   0.5034   1301.7408    937.3929  86.72     157.9299     1.329     0.611      5.796     73.20998  22.5538        747
 6.17   0.6190   1324.0872    631.8570   9.21     128.2849     1.745     0.712      4.860     73.11893  22.7796        748
 3.71   0.1055   1303.8031    891.3152 -58.81     753.2161     1.341     1.271      4.224     73.15205  20.8577        749
 4.11   0.0331   1306.6106   1034.6216 -39.20     2399.246     2.756     2.091      7.977     73.14378  19.5998        750
 3.50   0.2745   1329.3933    385.2852  -3.69     289.3908     1.296     1.253      4.121     73.15205  21.8963        751
 3.64   0.1520   1318.3696    262.4020 -29.61     522.5924     1.276     1.231      4.095     73.14378  21.2546        752
 6.94  99.0000   1322.6433    957.6936 -47.21     -81.8413     0.575     0.334      2.529     73.09408  99.0000        753
 3.50   0.0004   1297.3101    723.3259 -19.97     177858.8     2.659     2.132      5.919     73.11065  14.9248        754
 7.95   0.3680   1100.0000    111.0088   0.00     215.8215     0.859     0.289      3.176     73.12721  22.2148        755
 7.44   0.4948   1311.9938    998.0768 -28.43     160.5774     1.170     1.052      7.018     73.16861  22.5358        756
 3.93   0.1151   1128.1840    545.7701 -30.27     690.5437     1.357     1.284      4.590     73.18516  20.9520        757
 3.50   0.0125   1290.3876    760.6219 -25.70     6370.035     2.257     1.708      5.382     73.15205  18.5396        758
 3.50   0.0198   1277.2014   1329.9415 -87.78       4022.6     1.635     1.592      4.814     73.20998  19.0387        759
 5.36   0.2035   1384.7158   1272.3895  46.12     390.4525     1.497     1.334      7.097     73.15205  21.5711        760
 6.67   0.4331   1123.5750    756.7877 -48.27     183.4091     1.098     0.721      6.585     73.15205  22.3914        761
 6.04   0.7574   1124.4918    274.9145  -0.16     104.7912     0.776     0.500      3.456     73.08579  22.9992        762
 6.67   0.2657   1175.9192     17.0545 -23.45     298.8724     1.282     0.648      4.709     73.11065  21.8613        763
 6.61  99.0000   1299.0090    845.0176  -0.23    -49.08065     0.629     0.597      2.155     73.13549  99.0000        764
 8.09   0.4362   1128.5016    872.2014  88.21     182.0505     0.976     0.730      5.050     73.12721  22.3995        765
 4.20   0.2959   1290.6204    544.2021 -20.71     268.4634     1.143     1.012      3.804     73.15205  21.9778        766
 6.33  99.0000   1292.7864   1089.9070  60.37    -100.4754     0.923     0.748      1.475     73.14378  99.0000        767
 7.27   0.7403   1104.0562    625.2693  83.01     107.2744     0.721     0.682      3.615     73.12721  22.9738        768
 3.50   0.0001   1150.6973    692.2532 -38.99       684660     2.887     2.676      6.334     73.09408  13.4613        769
 3.50   0.0986   1291.5846    411.0669  -7.91     806.2118     1.363     1.260      4.122     73.19344  20.7839        770
 0.00  99.0000   1107.3711    969.7735 -17.41    -39.84817     0.756     0.447     -7.067     73.17689  99.0000        771
 4.77  99.0000   1282.3370   1567.6477 -45.17    -27.85349     0.972     0.847      2.253     73.14378  99.0000        772
 4.40   0.0540   1202.3214   1074.0956  33.00     1470.839     2.223     1.786      7.054     73.09408  20.1311        773
 8.52   1.2029   1152.4865    574.5125 -44.93     65.99626     0.506     0.494      3.034     73.10236  23.5012        774
 7.49  99.0000   1196.4852   1199.4744  48.16    -25.45647     0.502     0.498      3.009     73.10236  99.0000        775
 5.26  99.0000   1129.1439   1143.1812 -48.55    -39.44071     0.817     0.666      1.108     73.16861  99.0000        776
 7.01   0.1474   1140.4651    659.7985 -52.32     539.3955     1.893     1.522      9.878     73.20998  21.2202        777
 4.18   0.2406   1272.8336    696.5293 -23.77     330.1855     1.376     1.208      4.091     73.16033  21.7531        778
 4.58   0.1922   1261.2365    853.7141 -51.40     413.2691     1.240     1.125      4.778     73.15205  21.5094        779
 4.33   0.9982   1172.2396    206.5415  -0.52     79.60425     0.948     0.716      2.769     73.16861  23.2977        780
 0.00   4.1282   1144.4635   1337.2426  -9.82     19.24395     1.001     0.475      0.359     73.15205  24.8393        781
 7.53   0.2258   1227.8853    913.5693 -17.44     351.8625     1.499     1.332      8.993     73.16033  21.6841        782
 4.39   3.2283   1105.8502   1265.8051 -41.21     24.62814     0.868     0.840      2.988     73.20998  24.5714        783
 5.42   0.6607   1243.1521    612.2711   8.43      120.205     1.060     0.898      4.070     73.13549  22.8502        784
 4.15   0.1983   1227.8395   1152.2141 -22.11     400.7137     1.188     1.147      4.310     73.18516  21.5429        785
 3.50   0.0078   1271.8032    608.2762 -58.06     10211.31     4.613     2.623      9.467     73.16861  18.0273        786
 0.00   1.5357   1243.4989   1537.5067 -45.16     51.69102     0.504     0.496      0.000     73.09408  23.7665        787
 3.50   0.0057   1213.5747    511.3549 -25.18     13912.18     1.795     1.778      5.237     73.19344  17.6915        788
 3.50   0.2047   1236.6469     46.4764  -7.04     387.9946     1.257     1.207      3.983     73.12721  21.5779        789
 3.54   0.0958   1241.5844    671.1392   6.78     829.4826     1.349     1.311      4.144     73.16033  20.7530        790
 4.91   0.7503   1128.6785    503.2145 -72.86     105.9288     0.970     0.848      4.123     73.18516  22.9875        791
 6.05   0.3854   1237.0966    855.9076 -56.54     205.9324     1.347     1.137      4.345     73.08579  22.2657        792
 3.50   0.0088   1209.7596   1277.4928  80.92     9032.308     6.133     3.697     12.516     73.08579  18.1605        793
 3.89   0.1301   1179.9685    547.8348  27.07     610.7308     1.325     1.278      4.076     73.17689  21.0854        794
 3.52   0.0490   1236.1481   1552.2064 -62.25     1621.741     1.513     1.419      4.541     73.21825  20.0250        795
 5.47   0.0943   1228.9092    597.3938  -8.65      842.345     1.958     1.837      7.485     73.12721  20.7363        796
 7.87   1.3736   1223.3279    403.3292 -44.94      57.7919     0.573     0.336      2.927     73.09408  23.6453        797
 7.66   2.7948   1174.8308    251.6800 -22.04     28.42501     0.744     0.641      1.911     73.15205  24.4157        798
 3.65  99.0000   1018.5430   1153.2629 -11.43    -9.653354     1.024     0.928      3.092     73.14378  99.0000        799
 6.41   0.6803   1252.5984   1087.1168  72.04     116.7957     0.947     0.671      2.947     73.16033  22.8814        800
 4.88   0.7043   1184.2291    312.3769  -4.81     112.8161     0.955     0.906      3.400     73.16861  22.9191        801
 4.38   0.8045   1203.2086   1215.9971 -46.57     98.73096     1.081     1.040      5.159     73.13549  23.0639        802
 3.50   0.3755   1261.4006    214.4516 -30.80     211.7212     1.011     0.985      3.027     73.20998  22.2356        803
 5.10   0.1479   1220.3372   1429.9238 -84.30     536.9158     1.241     1.166      5.894     73.11893  21.2252        804
 4.24   0.0615   1211.8528   1427.9130  72.05     1290.144     2.884     2.287      6.867     73.11065  20.2734        805
 7.06   0.8723   1086.4921   1010.4984 -44.40     91.00114     0.501     0.499      3.008     73.09408  23.1524        806
 4.41   0.0521   1194.0449    122.4260 -77.15     1525.473     2.421     1.984      7.113     73.19344  20.0915        807
 3.89   0.0155   1171.4908    756.1340 -51.46     5108.727     3.866     3.757     10.663     73.13549  18.7792        808
 6.93   0.1461   1194.9761   1051.7767  26.54     543.7676     1.358     1.086      6.545     73.17689  21.2115        809
 3.50   0.0299   1233.3156    303.1268  10.70     2653.662     1.539     1.496      4.673     73.11065  19.4904        810
 5.49   0.2723   1209.7424    827.6857  20.32     291.7345     1.355     0.992      5.365     73.13549  21.8875        811
 5.19   1.9859   1209.4709   1414.3469   8.04     39.98988     1.389     0.977      3.564     73.12721  24.0451        812
 3.55   0.0481   1206.7057    837.2629 -23.02     1650.041     1.473     1.408      4.465     73.12721  20.0063        813
 3.50   0.0796   1200.0442   1440.7319  64.16     998.0624     1.865     1.674      5.395     73.14378  20.5521        814
 3.50   0.0565   1200.7561    337.4187 -18.04     1405.192     1.454     1.439      4.529     73.16861  20.1807        815
 5.57   0.7782   1197.0143    410.9902   3.15     102.0509     0.615     0.613      3.411     73.12721  23.0280        816
 7.37   0.8667   1186.0320   1233.0010  45.53     91.66395     0.915     0.530      3.692     73.15205  23.1445        817
 5.96   0.1372   1181.9125    672.2666 -38.80     578.7085     1.337     1.252      7.560     73.12721  21.1439        818
 3.50   0.3830   1180.7084    174.5835  42.19     207.4287     1.217     1.137      3.996     73.16033  22.2578        819
 5.48   0.9131   1222.1429    828.8300  43.66     87.04303     0.817     0.666      1.677     73.18516  23.2007        820
 8.16   0.6911   1187.8943    935.4072 -48.99      114.947     0.997     0.748      2.713     73.14378  22.8988        821
 4.40  99.0000   1195.9845   1332.0293 -26.05    -60.33625     0.791     0.777      4.168     73.18516  99.0000        822
 0.00  99.0000   1208.4907   1453.4929 -44.90    -32.80714     0.505     0.495      0.000     73.09408  99.0000        823
 7.42  99.0000   1185.2233    389.9972   0.12    -5.079101     0.692     0.416      2.848     73.16033  99.0000        824
 0.00  99.0000   1179.3308   1402.4528 -22.60    -193.7837     0.953     0.825      5.721     73.12721  99.0000        825
 7.60   0.1466   1178.1711   1306.1359  44.87     541.9223     0.759     0.567      4.554     73.16033  21.2152        826
 5.29   0.5504   1146.7434    110.7038   6.37     144.2132     1.044     0.920      4.616     73.09408  22.6525        827
 3.69   0.0379   1119.2843    328.1035  59.93     2095.124     2.997     1.855      8.194     73.06921  19.7470        828
 3.50   0.0017   1164.2914   1298.2402 -60.14      47851.8     1.971     1.917      5.392     73.10236  16.3503        829
 3.70   0.0554   1150.1506     97.7526 -18.30     1435.795     1.468     1.382      4.908     73.18516  20.1573        830
 5.51   0.5579   1157.1002    184.2888 -70.77     142.2288     1.252     0.910      4.355     73.06921  22.6675        831
 5.05   0.4692   1155.2443    565.8426 -72.71     169.3924     1.371     1.108      5.848     73.18516  22.4778        832
 8.18   9.9478   1166.4851    637.9879  -0.63     7.986916     0.781     0.500      4.148     73.16033  25.7941        833
 4.59   0.3781   1166.0668   1598.8599  81.41     167.8988     1.399     0.944      3.104     58.45413  22.4874        834
 3.99   0.0977   1152.6777   1351.5503 -11.80     812.3593     1.660     1.613      4.987     73.11065  20.7756        835
 6.36   0.4027   1155.5432    349.9644 -61.96     197.3605     1.000     0.667      4.098     73.17689  22.3118        836
 4.16   0.2037   1160.7136    886.1776  -5.98      389.984     1.328     1.227      4.077     73.15205  21.5724        837
 7.46   0.2070   1156.7861    969.3268 -20.66     384.0751     0.978     0.847      5.868     73.21825  21.5890        838
 3.50   0.0146   1156.7560    234.6834 -79.93     5430.208     1.671     1.666      5.080     73.13549  18.7130        839
 6.77   1.2073   1154.0000   1123.9731   0.00       65.794     0.860     0.289      2.202     73.14378  23.5045        840
 3.50   0.0088   1218.0081   1193.4810  65.18     8994.836     1.997     1.875      5.358     73.15205  18.1650        841
 0.00   2.3500   1205.5585    721.4760  38.68     33.80223     0.504     0.491      0.000     73.14378  24.2276        842
 6.43   1.0605   1145.6858    793.0436  -9.70     74.90443     0.733     0.663      3.222     73.14378  23.3637        843
 3.57   0.1258   1129.1498    217.8572  -3.65     631.5057     1.557     1.367      4.426     73.15205  21.0491        844
 4.30   0.2341   1171.6689    231.1080 -63.51     339.1634     1.079     0.977      4.267     73.11065  21.7240        845
 4.68   0.2959   1144.4302    768.3583 -59.72     268.5987     1.570     1.123      4.351     73.19344  21.9772        846
 4.35   0.5327   1176.0365   1597.4617 -85.35     129.2262     1.045     0.936      2.325     63.38499  22.7716        847
 3.50   0.0027   1137.4620    146.3127 -54.99     29530.11     1.912     1.893      5.481     73.11893  16.8743        848
 5.35   0.7183   1078.2360    920.6154 -32.32     110.6342     0.959     0.940      2.666     73.17689  22.9403        849
 4.59   0.2655   1130.0065    357.5856 -42.74     299.0397     1.180     0.984      4.530     73.11893  21.8607        850
 4.86   0.2283   1132.8885    605.9141 -11.29      347.741     1.313     1.173      5.234     73.11065  21.6969        851
 3.50   0.0051   1128.9320    181.7648 -53.97     15573.38     1.817     1.770      5.353     73.16861  17.5690        852
 6.05   0.7707   1127.2538    836.0876  74.99     103.0107     1.023     0.750      3.305     73.10236  23.0178        853
 5.53   0.1122   1104.5703    677.0995  39.04     707.2084     2.169     1.755      9.424     73.09408  20.9261        854
 6.54   0.5589   1125.1917    164.8132 -46.07     142.0841     0.742     0.565      3.531     73.12721  22.6686        855
 7.26   0.2486   1120.9564    739.5446   0.88     319.5569     1.058     0.785      6.348     73.15205  21.7886        856
 5.82   0.4343   1119.8595    638.3765  23.52     183.0123     1.121     0.835      4.025     73.19344  22.3938        857
 5.18   1.2358   1115.5903   1168.8553 -34.12      64.3265     1.356     0.982      4.712     73.20171  23.5290        858
 3.50   0.0122   1106.4481    426.3384  -9.29      6499.93     1.716     1.686      5.191     73.13549  18.5177        859
 6.93   0.8518   1116.5751    663.2375 -57.89      93.2905     1.025     0.796      5.831     73.16861  23.1254        860
 6.38   7.9020   1107.9810   1122.0045 -62.43     10.05237     0.791     0.782      3.547     73.14378  25.5443        861
 5.17   0.1079   1113.1106    672.6693 -71.48     735.6963     1.311     1.310      5.793     73.10236  20.8833        862
 8.70   0.4421   1114.6976    505.6875 -44.41     179.5153     0.554     0.344      3.327     73.07751  22.4147        863
 5.24   0.0615   1110.1713    477.9135  27.23     1292.247     3.267     2.221     12.519     73.15205  20.2716        864
 3.50   0.0078   1103.5300    750.2573 -87.83     10160.92     1.778     1.761      5.200     73.12721  18.0327        865
 3.77   0.7674   1093.7592   1134.8015  40.97     103.5545     1.145     1.081      3.103     73.17689  23.0121        866
 6.69  10.8265   1083.5940    844.8043  19.73     7.336157     0.765     0.444     -0.500     73.13549  25.8863        867
 5.81   2.0573   1076.9998    466.9958 -37.55     38.61925     0.792     0.772      3.453     73.16033  24.0830        868
 3.50   0.0028   1093.8246    776.4846  83.71     28382.27     1.916     1.881      5.461     73.15205  16.9174        869
 3.68   0.2388   1078.3486    328.4358 -38.53     332.7751     1.267     1.239      4.216     73.16861  21.7446        870
 4.89   0.1007   1089.8680    466.5598 -61.42     788.8569     2.769     1.373      8.512     73.16033  20.8075        871
 6.19   0.1798   1091.9058    427.6240  27.34     441.6801     2.152     1.530      7.423     73.13549  21.4372        872
 5.08   0.2422   1087.3275    395.1394  67.72     327.8832     1.334     1.094      4.734     73.12721  21.7607        873
 4.47   0.0726   1059.0112    725.3658  25.60     1094.487     2.079     1.759      6.578     73.18516  20.4520        874
 3.81   0.2336   1085.5021   1451.3997  65.38     339.9354     1.515     1.213      4.307     73.12721  21.7215        875
 3.50   0.0267   1088.2401    640.8350  86.91     2974.732     1.566     1.534      4.709     73.18516  19.3664        876
 3.50   0.0002   1022.7267     48.6201 -35.71     445070.5     2.597     2.408      6.173     73.19344  13.9289        877
 3.50   0.0025   1079.0282    510.4786 -32.38     31282.85     1.914     1.898      5.432     73.14378  16.8117        878
 4.25   0.2133   1062.2235      5.4637 -29.00     351.1372     1.246     1.180      4.594     68.96744  21.6863        879
 3.50   0.0088   1080.8505   1146.6935  77.88     9017.506     1.745     1.731      5.054     73.10236  18.1623        880
 4.12   0.0509   1071.2167   1217.5026 -70.66     1560.401     2.520     2.104      7.531     73.14378  20.0669        881
 4.82   0.1558   1082.6919     41.1963  -8.16     509.7562     1.616     1.304      5.824     73.12721  21.2816        882
 4.37   0.2172   1065.7548    567.4888 -62.16     365.6654     1.384     1.135      3.891     73.11893  21.6423        883
 5.51   0.2750   1079.3701     51.4391 -43.55     289.0107     1.041     0.920      5.018     73.17689  21.8977        884
 4.63   0.4758   1016.3798    199.5536  42.36     167.0092     1.080     0.949      4.783     73.17689  22.4931        885
 4.14   0.1021   1072.2291      5.1956 -71.72     726.5421     1.268     1.239      4.650     68.27908  20.8968        886
 3.50   0.0050   1008.8694    812.1041  84.86     15784.97     1.824     1.805      5.276     73.12721  17.5544        887
 5.26   0.2864   1073.5564    350.7970  61.84     277.5922     1.464     1.131      6.252     73.20171  21.9415        888
 4.81   0.7578   1062.8992    290.3218 -19.83     104.7563     1.087     0.971      4.143     73.09408  22.9995        889
 4.43   0.0861   1064.2568   1561.6133 -67.53     923.1006     2.826     1.830      7.609     73.18516  20.6369        890
 3.50   0.4247   1064.9015   1595.6791  -0.52     175.3383     1.193     1.117      3.838     68.57115  22.4403        891
 3.50   0.0020   1039.2612    631.3998 -52.15     40514.73     1.943     1.906      5.472     73.20998  16.5310        892
 5.96   0.4629   1055.2920    663.0732   5.50     171.5769     0.739     0.675      4.124     73.12721  22.4639        893
 5.25   0.4783   1059.5073    689.4709   0.23     166.0036     1.035     0.500      3.154     73.11893  22.4997        894
 4.91   0.1750   1066.9222   1472.6885  13.82     453.4948     2.290     1.464      6.940     73.09408  21.4086        895
 6.46  99.0000   1046.9856   1157.0267  37.73    -13.50002     0.802     0.775      2.417     73.16033  99.0000        896
 6.80   0.4250   1047.3096    206.9439  -7.42      186.821     0.748     0.663      2.896     73.11893  22.3714        897
 3.96   0.4741   1051.4053    236.0589  32.58     167.6767     1.280     1.083      3.240     73.20171  22.4888        898
 3.50   0.0098   1037.6960    523.7816  82.78     8112.207     1.756     1.726      5.177     73.14378  18.2772        899
 4.81   2.9523   1041.5990   1094.1293  31.86      26.9241     1.300     0.830      5.871     73.19344  24.4746        900
 5.15   0.3860   1051.6841    399.0921 -82.94     205.6688     1.140     0.849      4.927     73.10236  22.2671        901
 7.71   0.8044   1052.5165   1383.5254  56.93     98.70106     0.500     0.499      3.000     73.11065  23.0642        902
 6.71   0.5404   1032.5081    491.9370  -0.07      146.962     0.789     0.500      4.138     73.13549  22.6320        903
 5.45   0.2844   1039.6661    465.6006  32.05     279.5533     1.347     1.141      6.329     73.20171  21.9338        904
 4.73   0.1351   1036.8652    120.3497 -37.54     588.1439     2.572     1.361      7.427     73.14378  21.1263        905
 6.90   0.7761   1025.0353      5.9489 -44.25     98.10048     0.891     0.532      3.672     70.10834  23.0708        906
 5.31   0.4177   1032.7021    100.3017  39.23     190.0063     0.931     0.759      4.176     73.08579  22.3531        907
 5.23   0.5120   1036.4390    240.4637  -4.44     155.1767     0.907     0.880      4.081     73.16033  22.5729        908
 3.62   0.3276   1013.5132    451.4057  19.72     242.4705     1.293     1.062      4.054     73.15205  22.0884        909
 3.73   0.0474   1029.2534    300.8980  65.90     1676.032     2.833     1.955      7.337     73.08579  19.9893        910
 4.77   0.4574    992.2214    498.2236  13.88     173.7314     0.950     0.845      4.154     73.17689  22.4503        911
 3.50   0.0043   1024.8685   1378.5450 -82.84     18422.43     1.908     1.781      5.307     73.12721  17.3866        912
 6.67   0.6369   1024.2909    126.9758   2.36     124.7113     0.735     0.678      3.849     73.14378  22.8102        913
 6.46  99.0000   1031.4546   1166.4862  30.61    -5.240732     0.501     0.497      2.343     73.12721  99.0000        914
 3.50   0.0338   1010.2822    343.0762 -25.98     2347.387     1.542     1.500      4.690     73.12721  19.6235        915
 5.39  99.0000   1028.5204   1033.8624  49.53    -47.22431     0.858     0.665      3.304     73.11065  99.0000        916
 5.72   0.2277   1010.0002    266.0419  37.06     349.0175     1.151     1.135      5.958     73.17689  21.6929        917
 7.25   0.6281   1008.5160    188.9674   0.83     126.4985     0.782     0.500      3.897     73.16033  22.7948        918
 6.09   1.4688   1025.4962   1265.4888 -34.41     54.03141     0.938     0.561      1.313     73.07751  23.7184        919
 4.83   0.8340    991.4347    344.4879 -26.49     95.25891     0.908     0.880      3.517     73.15205  23.1027        920
 3.50  99.0000   1003.3541   1236.5841  39.67    -38.62065     1.130     0.769      3.091     73.16861  99.0000        921
 4.80   0.4850   1020.2845   1267.2625  45.75     163.7304     2.403     0.986      8.269     73.11893  22.5147        922
 3.50   0.0307   1000.7197    541.0186  31.04     2592.678     1.581     1.571      4.817     73.17689  19.5156        923
 3.50   0.0726   1000.5585   1554.0790 -38.51     1094.697     1.361     1.359      4.288     73.14378  20.4518        924
 3.68   0.1133    998.8989   1272.4159 -27.00     700.8542     1.391     1.252      4.338     73.13549  20.9359        925
 5.61   0.9895   1042.1692    808.1451 -29.58     80.32358     0.877     0.838      4.167     73.18516  23.2879        926
 7.01   1.5585    998.5260   1439.5573 -49.47     50.96108     0.506     0.490      1.281     73.13549  23.7819        927
