#   1 KRON_RADIUS            Kron apertures in units of A or B                         
#   2 MAGERR_APER            RMS error vector for fixed aperture mag.                   [mag]
#   3 Y_IMAGE                Object position along y                                    [pixel]
#   4 X_IMAGE                Object position along x                                    [pixel]
#   5 THETA_IMAGE            Position angle (CCW/x)                                     [deg]
#   6 FLUX_APER              Flux vector within fixed circular aperture(s)              [count]
#   7 A_IMAGE                Profile RMS along major axis                               [pixel]
#   8 B_IMAGE                Profile RMS along minor axis                               [pixel]
#   9 FLUX_RADIUS            Fraction-of-light radii                                    [pixel]
#  10 FLUXERR_APER           RMS error vector for aperture flux(es)                     [count]
#  11 MAG_APER               Fixed aperture magnitude vector                            [mag]
#  12 NUMBER                 Running object number                                     
 3.50   0.0002    181.0296   1105.8228 -42.25     909664.5     6.881     6.329      9.612     137.5153  13.1528          1
 3.54   0.0058     52.5032     61.8569   6.63      25618.2     7.099     6.376     16.525     137.3907  17.0286          2
 3.50   0.0035     58.9559   1076.9435  80.37     42092.17     2.158     2.036      5.394     137.4997  16.4895          3
 3.50   0.0363     15.7470    983.4686 -87.92     4115.862     4.573     2.016      8.566      137.453  19.0138          4
 3.73   0.2453     23.8459    365.4448  11.92     608.9732     1.434     1.383      4.895     137.5619  21.0885          5
 3.50   0.7042     16.2665    382.9738 -57.39      212.105     1.490     1.235      3.491     137.5308  22.2336          6
 3.50   0.0422     17.0171     89.4665 -23.70     3541.875     1.716     1.678      4.710     137.5464  19.1769          7
 3.50   0.0164     13.8082   1444.2325 -50.19     9135.015     1.769     1.738      4.732     137.5308  18.1482          8
 4.05   0.8702     13.3555    839.4698 -68.25     171.5613     1.795     1.158      6.222     137.4686  22.4640          9
 4.15  99.0000     14.6512   1561.4030 -38.91    -124.5679     1.002     0.868      1.338     137.6086  99.0000         10
 3.50  99.0000      9.1762   1182.2531  63.97    -71.20878     1.114     1.082      2.606      137.593  99.0000         11
 3.64  99.0000      5.9200   1467.9447   2.76    -100.4349     1.195     1.150      5.990     131.6324  99.0000         12
 4.51   0.4198      3.6409    143.2160  56.00     309.9821     1.759     1.589      6.672     119.8395  21.8217         13
 4.61   0.3604      3.7293    183.8148   1.75     362.7533     1.337     1.145      5.393     120.3917  21.6510         14
 0.00  99.0000      2.6827    843.3784  20.12    -9.918645     0.943     0.580      5.657     113.6257  99.0000         15
 7.85   1.8140      3.3090    161.3352 -43.71     70.48322     0.567     0.338      3.404      117.732  23.4298         16
 6.10   0.5403      1.9306    302.4750   3.63     217.7152     1.017     0.770      6.103     108.3235  22.2053         17
 3.50   1.7134     23.0219    381.4543  30.95     87.20039     1.368     1.245      8.210     137.5775  23.1987         18
 4.55  99.0000     17.2580   1213.4838   6.75    -98.42891     0.955     0.928      2.376     137.4374  99.0000         19
 5.73   1.2085     15.4904    192.9885  -3.25     123.5469     0.790     0.499      3.713     137.4841  22.8204         20
 4.13   0.3463     33.0241   1108.5377  63.75     431.4555     2.110     1.333      5.746     137.5619  21.4627         21
 5.12  99.0000     22.8372    696.7354  15.02    -131.2458     0.929     0.844      0.237     137.5308  99.0000         22
 0.00  99.0000     20.9592    212.0401 -46.19    -123.7754     0.811     0.765      4.864     137.5619  99.0000         23
 5.50   0.7165     24.3048   1451.6566 -46.65     208.2597     1.023     0.860      4.022     137.4063  22.2535         24
 7.45  99.0000     21.3406    883.3214 -45.85    -50.96704     0.575     0.334      1.255     137.4686  99.0000         25
 4.98   0.3050     32.4049    324.9523 -19.39     489.9913     1.570     1.318      5.438     137.6086  21.3245         26
 6.99  10.3178     24.8344    529.8267  45.19     14.47576     0.760     0.567      2.606     137.5308  25.1484         27
 0.00   5.7148     25.9974    701.2047  -0.88      26.1237     0.932     0.740     -8.692     137.4686  24.5074         28
 6.95   3.3612     23.6851    201.6656 -44.07     44.40642     0.570     0.337      2.670     137.4374  23.9314         29
 6.46   1.1817     33.6780     14.7194  82.00     126.3026     1.082     0.904      3.917     137.4374  22.7965         30
 4.23   0.3733     37.9955   1169.1996  16.63     399.9959     1.355     1.226      4.986     137.4841  21.5449         31
 4.78   1.8114     43.3518    438.6536 -54.40     82.45377     1.744     1.376      3.786     137.5308  23.2595         32
 6.54  99.0000     33.5299   1066.4965  70.90    -92.56395     0.976     0.407      4.723      137.453  99.0000         33
 3.50   0.0037     79.0630    535.8602 -62.01     40182.88     2.009     1.977      5.329     137.4686  16.5399         34
 3.67   1.6827     37.0430   1519.9758 -48.34     88.79337     1.177     1.064      5.622     137.5775  23.1790         35
 0.00  99.0000     29.6498   1486.2804  48.74    -152.9384     0.560     0.340      0.000      137.453  99.0000         36
 3.95   0.5519     41.5129    913.8262 -66.99     270.5977     1.220     1.086      4.211     137.5153  21.9692         37
 3.50   1.6886     38.4746   1224.7139 -32.27     88.37185     1.302     0.820      3.141     137.4063  23.1842         38
 4.68   1.1216     49.2970    263.4306 -79.50     133.0546     1.648     1.214      4.138     137.4219  22.7399         39
 4.52   1.1570     42.5328    226.6916  37.05      129.019     1.066     0.788      3.947      137.453  22.7734         40
 7.32  99.0000     39.4763   1126.5161 -43.94    -142.9443     0.504     0.495      3.022     137.4219  99.0000         41
 3.50   6.2061     41.6014   1000.3078  -4.50     24.05567     1.022     0.615      2.063     137.4686  24.5970         42
 0.00  99.0000     46.5404   1429.2076  19.51    -291.2979     0.905     0.891      5.433     137.6086  99.0000         43
 5.04   1.1235     46.7716    664.5160 -28.15     132.9084     1.022     0.796      3.776     137.4997  22.7411         44
 6.98   0.8748     45.8466    473.1279  44.45     170.6572     0.808     0.685      4.848     137.4686  22.4697         45
 3.50   1.3771     49.4517   1433.9252   8.93     108.3704     1.249     0.995      2.436     137.4219  22.9627         46
 6.66   1.0116     50.4632    119.8189  88.19     147.6558     0.918     0.737      5.043     137.5464  22.6269         47
 0.00  99.0000     49.4858    879.5351 -64.51    -221.2831     0.500     0.498      0.000     137.4219  99.0000         48
 4.00   2.9905     65.0373   1146.2700 -19.42     49.94482     1.455     1.392      1.510     137.5308  23.8038         49
 0.00   3.5117     58.7776    468.9168  54.51     42.52688     1.087     0.522      6.525     137.5153  23.9783         50
 7.78   0.4982     54.2825    319.3522 -41.35     299.6085     0.562     0.339      0.861      137.453  21.8586         51
 4.60   0.6334     57.3253   1240.1503 -31.73      235.624     0.863     0.589      3.504     137.4219  22.1194         52
 3.50   0.0956     74.1105    126.4833 -36.10     1561.907     1.530     1.474      4.278     137.4374  20.0659         53
 0.00  99.0000     66.8107   1414.1892 -69.13    -123.9053     1.198     0.929   -145.327      137.453  99.0000         54
 0.00  99.0000     65.5495   1514.6031 -73.16    -236.5524     0.924     0.799    -52.503     137.6086  99.0000         55
 3.50   0.0025    120.9312    787.4824 -57.20     60188.18     2.073     2.034      5.324     137.4219  16.1012         56
 7.50   0.5276     68.4357     17.8169  35.71     283.1599     1.151     0.973      5.265     137.5619  21.9199         57
 0.00  99.0000     70.9651   1320.5903 -84.80    -165.0246     1.112     0.932      6.672     137.5308  99.0000         58
 3.83   0.0064    234.0933    401.6226 -45.79      23402.4     9.644     8.194     23.418     137.4686  17.1268         59
 3.59   0.5007     81.3172    419.7298 -85.96      298.049     1.602     1.353      3.940     137.4063  21.8643         60
 6.29  99.0000     73.4404   1255.7075 -58.14      -97.884     0.952     0.539      3.695     137.3752  99.0000         61
 3.90   0.2102     89.6596    375.3848 -14.03     710.5981     2.441     2.077      7.538     137.5153  20.9209         62
 3.50   1.3930     78.7103   1031.9065 -22.65     107.1243     1.134     1.001      3.663     137.4063  22.9753         63
 6.49  99.0000     73.9819    732.3007  89.78    -87.50597     0.725     0.670      1.301     137.4686  99.0000         64
 3.50   0.0712     95.5663     54.3909  51.62     2098.865     1.658     1.655      4.808     137.5308  19.7450         65
 3.50   0.0006    192.5904    316.2847 -63.44     255807.2     2.961     2.390      5.950     137.5153  14.5302         66
 6.31   1.3005     82.9323    930.9177  37.71     114.7828     1.231     1.035      3.309      137.453  22.9003         67
 5.38   0.6606     87.5712    757.1959  61.74       226.07     1.374     1.216      6.532     137.5153  22.1644         68
 5.60   1.6389     84.9324   1559.1282  58.80     91.03799     1.169     0.614      1.708     137.3907  23.1519         69
 0.00  99.0000     87.0815   1358.2363 -69.50    -214.0665     1.154     1.013    -81.869     137.4997  99.0000         70
 6.34   1.7479     86.6410    862.2183 -36.08     85.46865     1.383     1.055      7.509     137.5619  23.2205         71
 5.11   1.3594     90.7756   1043.8887  54.94     109.8363     1.555     1.059      4.906     137.4841  22.9481         72
 3.78   0.3403     90.5975    494.1282  81.08     439.1085     1.228     1.172      4.424     137.5775  21.4436         73
 5.96  99.0000     87.9500    810.6520 -59.04    -54.97435     1.152     0.679      2.006     137.5464  99.0000         74
 7.27   7.9369     84.0238    843.5171  58.19     18.81611     0.805     0.310      1.414     137.5153  24.8637         75
 6.96  99.0000     85.7783    923.1915 -46.11    -150.0924     0.760     0.561      1.101     137.4997  99.0000         76
 3.82   0.3788     97.1525    451.0917 -16.71      393.982     2.196     1.322      7.505     137.4063  21.5613         77
 5.00   0.4778     94.6540   1074.7657  36.16     312.5365     1.365     1.159      5.559     137.5153  21.8127         78
 8.28   4.3700     86.6779    735.3154  45.35     34.15109     0.565     0.340      0.520     137.4219  24.2165         79
 4.25  12.8149     94.2043    387.5448   0.76     11.66295     0.927     0.726      3.710     137.6241  25.3830         80
 6.56  99.0000     95.8181    559.6128  71.51    -33.26546     0.746     0.449      2.294     137.4841  99.0000         81
 7.17   1.0163     93.5128    870.5064 -44.88     146.8147     0.514     0.485      1.744     137.3907  22.6331         82
 8.22  99.0000     93.6777    667.6960 -46.00    -166.2634     0.559     0.342      0.162     137.3907  99.0000         83
 5.57   0.5434    101.6471    517.3776  40.57     274.9142     1.095     0.938      5.505     137.5464  21.9520         84
 5.75   0.5875    112.8001    268.6048  65.26     254.1143     1.678     1.406      4.821     137.4686  22.0374         85
 0.00  99.0000    106.8065   1420.9231 -54.99     -114.547     1.092     0.781    -13.588     137.5308  99.0000         86
 7.34   0.4499    106.3212   1098.3352  38.03     331.6985     0.987     0.868      4.432     137.4219  21.7481         87
 4.71   2.1145    107.3404    861.3599  41.75     70.63661     0.979     0.859      5.595     137.5308  23.4274         88
 6.30   1.5080    106.1865    180.1313 -42.16     99.09149     0.824     0.664      4.944      137.593  23.0599         89
 4.32   0.9741    114.3147    414.2264 -71.35     153.2879     1.316     1.033      3.622     137.4997  22.5862         90
 3.50  99.0000    116.6593    152.4440  88.98    -114.0796     1.188     0.965      2.306     137.4997  99.0000         91
 4.56   0.3348    116.2464     65.1732  11.72     446.2495     1.762     1.154      7.218     137.5775  21.4261         92
 0.00  99.0000    109.9876   1513.4553   2.39    -382.3784     1.010     0.771      6.061     137.5775  99.0000         93
 3.85   3.3896    116.0682    989.4073 -19.19     44.08371     1.228     1.077      1.833      137.593  23.9393         94
 0.00   5.1102    117.5243    911.9736 -62.07     29.22075     1.044     0.659      6.266     137.4997  24.3858         95
 0.00  99.0000    112.6601   1411.6680 -45.33    -310.7226     0.580     0.332      0.000      137.453  99.0000         96
 5.98  99.0000    114.5148   1578.5339  47.34    -267.9182     0.505     0.494      1.438     137.4063  99.0000         97
 3.70   0.6292    125.3379    492.5833   3.06     237.3361     1.713     1.248      4.851     137.4997  22.1116         98
 3.50   0.0044    161.4548   1466.8226 -54.15     33822.02     1.970     1.933      5.127     137.5619  16.7270         99
 0.00  99.0000    118.4862   1400.5142 -45.04    -333.4336     0.503     0.497      0.000     137.4063  99.0000        100
 4.11   0.5810    128.2080    884.2949  61.76     256.9647     1.036     0.870      3.751     137.4841  22.0253        101
 6.76  99.0000    120.6424   1436.3108  46.99    -131.1352     0.577     0.333      1.278     137.4686  99.0000        102
 4.53   0.4556    130.2060    416.2736  57.94     327.9114     1.102     1.059      4.421     137.5775  21.7606        103
 3.99  99.0000    127.2104   1476.9792  79.81    -49.36459     0.886     0.738      1.442     137.4841  99.0000        104
 0.00  99.0000    122.6954    867.3506  42.87    -58.54026     0.572     0.336      0.000     137.3596  99.0000        105
 6.84  99.0000    126.1398   1371.8470 -45.71    -162.6565     0.761     0.572      3.522     137.4997  99.0000        106
 5.53   0.5921    141.1429    884.2939  52.30     252.0371     2.329     1.036      4.878     137.4219  22.0463        107
 7.98   1.1753    135.9272   1130.5630 -45.79     127.0626     1.045     0.901      3.125     137.5153  22.7900        108
 0.00  99.0000    129.4938    461.4677  78.84    -79.79044     0.500     0.499      0.000     137.4374  99.0000        109
 5.93   1.0567    134.4130     97.8696 -63.58     141.4079     1.112     0.573      4.140      137.593  22.6738        110
 0.00  99.0000    138.0558   1599.6447 -89.12    -27.29347     1.090     0.478      6.542     104.0928  99.0000        111
 5.05   2.4114    145.7942    352.3351 -51.85     61.96539     1.481     1.254      3.881      137.593  23.5696        112
 7.46  99.0000    134.3024   1274.6630  43.25    -251.3222     0.565     0.339      3.391      137.453  99.0000        113
 3.50   0.0195    169.2852    875.6418 -68.51     7674.791     1.823     1.787      5.077     137.4841  18.3373        114
 4.03  99.0000    150.6898   1278.8584  72.69    -65.82908     1.240     1.089      3.455     137.4374  99.0000        115
 3.50   1.1301    154.4591     80.7073 -48.65     132.0542     1.139     0.952      3.372     137.4219  22.7481        116
 4.10   0.3264    164.2565   1444.3588  51.65     457.4422     1.599     1.386      5.454     137.4841  21.3992        117
 4.97  99.0000    155.3039   1578.5997  44.99    -198.3024     1.015     0.894      2.782     137.4841  99.0000        118
 5.33   0.1593    207.7797    348.2331  43.15      937.349     2.397     1.657     10.280     137.5308  20.6202        119
 4.66 248.7209    164.9023    574.8923  77.87    0.5998946     1.442     1.087      6.579     137.3907  28.6048        120
 0.00  99.0000    154.6779    822.9031   8.95    -97.60806     0.733     0.673      0.000     137.4063  99.0000        121
 3.50   0.3334    165.7311    102.5888 -27.00     448.2339     1.371     1.226      4.096      137.593  21.4212        122
 6.37   0.8121    155.9932   1007.4714 -87.59     183.9701     0.790     0.499      2.050     137.5775  22.3881        123
 7.72   0.3388    165.8160   1054.6110 -30.57     440.7321     1.402     1.251      8.410     137.4841  21.4396        124
 5.29   0.7301    159.0999    491.2162   9.72     204.4949     1.163     0.720      2.490     137.4841  22.2733        125
 4.82   1.8533    168.4566   1367.4496 -10.39     80.57278     1.311     1.213      2.652     137.4997  23.2845        126
 0.00   3.6581    164.4116   1196.3029  10.55     40.80629     1.049     0.910      6.293      137.453  24.0232        127
 4.70   1.3595    167.8858    649.6248   1.54     109.8359     1.369     1.140      5.048     137.4997  22.9481        128
 4.30   0.3279    179.1838    573.4161  29.87     455.4868     1.836     1.480      4.608     137.5153  21.4038        129
 6.37  99.0000    168.7838    168.6011  71.45    -138.0482     0.755     0.450      1.095     137.4686  99.0000        130
 5.92   0.5934    174.9443   1199.0182 -74.34     251.7089     1.198     1.159      6.648     137.5308  22.0478        131
 0.00  99.0000    172.5069     30.0436  89.14    -242.6915     0.830     0.681      0.000     137.3907  99.0000        132
 7.22  99.0000    172.9824   1017.2438  89.15     -47.4753     0.688     0.429      3.289     137.5464  99.0000        133
 5.22   1.1370    185.8885   1353.4348 -86.38     131.3217     1.682     1.552      2.588     137.4841  22.7542        134
 3.89   0.2155    191.7777   1349.0513 -14.74     693.3024     1.449     1.429      4.190     137.5775  20.9477        135
 0.00  99.0000    182.4289     58.2628 -47.61     -172.372     1.098     0.734  -1029.751     137.5153  99.0000        136
 3.53   0.0450    209.8705    826.0511  -8.35     3316.391     5.112     2.351     10.931      137.453  19.2483        137
 6.93   0.3719    189.4461   1026.0288 -10.76     401.7001     1.459     1.347      8.448     137.5775  21.5402        138
 3.77   0.0563    229.0276    560.6634 -21.29     2654.181     4.108     3.773     11.206     137.5308  19.4902        139
 6.24  99.0000    186.3875    834.7411 -21.62    -112.0647     1.142     0.860      6.262     137.5464  99.0000        140
 7.52   0.8938    183.4922    493.5123  45.64     166.9297     0.502     0.498      3.012     137.3907  22.4937        141
 5.68   0.5272    194.1933    266.3272  -1.40     283.4216     1.870     1.234      3.537     137.5775  21.9189        142
 3.50   0.0910    205.7529    547.4427  63.58      1640.85     1.507     1.494      4.631     137.5464  20.0123        143
 3.50   0.0019    264.9552     65.7536 -50.95     76815.36     2.195     2.108      5.524     137.5775  15.8364        144
 5.83   0.7726    194.8752    447.8389 -56.33     193.2753     1.100     0.979      4.352     137.4997  22.3346        145
 3.50   0.0013    258.9338    995.8009 -40.44     113336.8     2.230     2.119      5.441      137.593  15.4141        146
 7.96   0.7969    193.7061   1158.2716 -23.86     187.2985     1.082     0.880      6.489     137.4374  22.3687        147
 3.50   0.1092    211.4034   1304.6565 -42.51     1369.242     1.532     1.512      4.451     137.6241  20.2088        148
 3.81   0.5839    209.9437    683.1042 -79.22     255.5626     1.702     1.387      4.688     137.4063  22.0313        149
 4.43   0.3691    202.4641    249.1790 -50.77     404.6927     1.296     1.190      5.191     137.5619  21.5322        150
 4.09   0.9310    204.8055    182.1850 -42.90     160.3545     1.107     0.937      2.696     137.4686  22.5373        151
 6.48   5.3728    204.5180    935.3230  -9.34     27.78345     1.115     0.878    -23.889      137.453  24.4405        152
 5.85   0.1300    221.6086    343.9922  22.25     1148.298     2.256     2.120     10.128     137.4686  20.3999        153
 3.50   5.8210    208.2003   1224.0547   3.02     25.67298     1.113     0.992      3.743     137.6086  24.5263        154
 0.00  99.0000    202.4843     89.5112 -44.61    -98.78771     0.504     0.495      0.000     137.4219  99.0000        155
 5.43   4.6562    205.1465    940.4792   2.38     32.05536     0.959     0.726      3.900     137.4374  24.2852        156
 3.50   0.0005    311.2099    437.7659 -43.62     313262.5     2.607     2.441      5.837     137.5619  14.3102        157
 3.50   0.0893    223.2607   1224.6036  78.31     1673.161     1.516     1.478      3.701     137.6086  19.9912        158
 5.42   4.2814    216.7025    881.1840 -54.73     34.87363     2.069     0.991      0.416     137.4841  24.1938        159
 5.10   0.4728    216.7890    739.7997 -42.28     315.8012     1.741     1.273      5.938     137.4997  21.8015        160
 6.45  99.0000    214.2048    791.6278 -30.96    -18.99025     1.058     0.805      1.944     137.4997  99.0000        161
 3.50   0.4585    221.7073    773.3235 -32.37     325.5309     1.355     1.291      3.815     137.4219  21.7685        162
 7.84   0.6527    226.2015    323.4709 -79.71     228.8938     2.135     1.048     12.058     137.5775  22.1509        163
 3.50   0.0709    227.7619    413.5854 -10.81     2106.225     1.777     1.704      4.494     137.5619  19.7412        164
 3.90   0.1193    243.0269    111.0770 -85.42     1251.942     2.459     1.782      5.481     137.4997  20.3060        165
 3.85   0.0472    254.5490    611.1826 -42.66      3162.85     2.938     2.403      6.652     137.5464  19.2998        166
 8.40   0.4079    219.4943    355.8112 -87.60     366.0156     0.970     0.738      5.820     137.4686  21.6413        167
 5.83   1.0208    217.8277    490.9034 -42.71      146.213     0.826     0.662      3.277     137.4374  22.6375        168
 0.00  99.0000    220.5030   1401.0468  87.59    -271.9933     0.818     0.692      0.000     137.3596  99.0000        169
 5.80   0.5578    229.3320    546.3625 -55.24     267.7094     1.658     1.241      5.792     137.5153  21.9808        170
 7.05   0.5761    220.1687    682.8414 -44.32      259.337     0.763     0.566      4.401     137.5775  22.0153        171
 0.00  99.0000    219.4618   1504.4998 -42.42    -162.3255     0.507     0.491      0.000     137.4374  99.0000        172
 8.81   0.7401    229.3480   1139.5793 -55.00     201.8395     1.218     0.886      5.650     137.5464  22.2875        173
 3.50   0.3208    238.4117    837.2283  -4.95      465.688     1.900     1.631      6.069     137.5464  21.3798        174
 8.28   1.8408    234.5157   1125.2993  52.96     81.03896     1.342     0.969      4.506     137.3596  23.2783        175
 7.75   1.1219    225.3229    245.2989 -46.35     133.0191     0.557     0.343      3.345     137.4219  22.7402        176
 5.30   0.2653    251.0283   1371.3765  89.82     563.0374     2.137     1.870      5.150     137.5464  21.1737        177
 4.97  99.0000    238.7551   1477.4154 -79.33     -62.7775     1.415     0.958      4.097     137.5308  99.0000        178
 3.50  99.0000    232.0917   1551.6677 -15.31    -117.8501     0.982     0.730      1.505      137.453  99.0000        179
 8.14   0.5749    243.2605   1003.4316  52.63     259.7979     1.817     0.923      9.396     137.5308  22.0134        180
 7.02   0.9010    236.3093    988.6573  43.43     165.6523     0.571     0.337      2.217     137.4374  22.5020        181
 5.29   4.7974    247.7249   1413.0067  28.77     31.14731     1.334     1.255      2.380      137.593  24.3164        182
 5.04   0.4410    249.5194    105.7911   2.81     338.6254     1.439     1.285      7.012     137.4997  21.7257        183
 0.00  99.0000    250.4650   1549.2739  56.31    -307.4934     1.187     1.119    -85.146     137.4063  99.0000        184
 4.34   0.7380    248.7665    149.7034 -74.81     202.1908     1.105     0.982      1.395     137.4063  22.2856        185
 3.50  99.0000    252.5172   1351.3475  74.27    -10.85735     1.149     1.098      3.419     137.4219  99.0000        186
 3.50   0.0006    350.5069   1344.3130 -42.05     267520.9     2.491     2.331      5.658     137.4063  14.4816        187
 3.50   0.0084    286.7195   1484.9982 -49.94     17760.76     1.922     1.890      4.961     137.5308  17.4263        188
 3.50   0.0005    350.4288    889.1489 -51.07     277271.2     2.471     2.298      5.664     137.5619  14.4427        189
 4.31   0.8365    247.9680    561.0484 -36.33     178.5945     0.789     0.759      3.318     137.5619  22.4203        190
 4.49  99.0000    252.0717    693.4871  87.24    -24.77112     0.780     0.499      1.879     137.4063  99.0000        191
 3.50   0.0028    317.8309    903.7722 -47.42     53022.32     2.281     2.056      5.459     137.5464  16.2389        192
 5.56   0.4090    264.0455    722.9034 -78.98     364.7272     1.563     1.200      3.981     137.3752  21.6451        193
 3.50   0.0402    281.0604   1520.9032  77.63     3709.266     1.707     1.610      4.782     137.4219  19.1268        194
 4.67   1.1733    270.0174   1272.1866  10.99     127.2846     1.606     1.425      2.518     137.5153  22.7881        195
 5.33   2.8824    264.5963    122.1109  35.52       51.794     1.203     1.089      3.441     137.4686  23.7643        196
 6.34   0.4645    261.0303   1207.9852 -28.54     321.6028     0.792     0.771      4.279     137.5619  21.7817        197
 7.55   1.5196    260.7122    480.9927  -4.30     98.26565     0.730     0.679      4.382     137.4997  23.0690        198
 6.55  99.0000    267.1944   1386.6865  62.47    -35.08718     1.193     0.861      1.670     137.4997  99.0000        199
 7.94   2.9906    267.9426    367.9836 -16.67     49.94322     1.169     1.084      7.017     137.5308  23.8038        200
 3.50   0.0112    302.1456    199.9429 -68.50     13342.16     1.878     1.851      5.193     137.4686  17.7369        201
 3.58  99.0000    270.5888   1248.9329  73.43    -303.2291     0.966     0.736      2.175     137.5775  99.0000        202
 0.00  99.0000    268.0347   1308.6987  81.14    -169.8561     0.722     0.661      0.000     137.3596  99.0000        203
 3.83   0.1425    296.6212   1411.9924 -41.41     1048.051     3.942     1.817     17.365     137.4997  20.4990        204
 3.50   0.0956    288.8372    513.3753  45.72     1562.864     1.965     1.884      5.109     137.5153  20.0652        205
 0.00   1.7337    271.9814    724.5231 -28.11     86.18949     1.056     0.654     -1.749      137.593  23.2114        206
 7.19   2.9336    275.6381   1376.3872  47.37      50.9249     1.112     0.956      3.302     137.5619  23.7827        207
 4.21   0.3561    292.5286   1474.2451 -21.41     419.1864     1.648     1.543      4.152     137.4686  21.4940        208
 0.00  99.0000    274.7762   1368.9469 -38.15    -193.2688     0.816     0.666      4.894      137.593  99.0000        209
 5.42   1.4035    278.5136    555.7759  -0.33     106.4061     1.170     0.849      1.972     137.5153  22.9826        210
 3.50   0.1027    293.0670   1326.0547 -16.13     1453.644     1.557     1.490      4.495     137.4686  20.1439        211
 0.00   2.2786    285.0012    336.7218 -53.82     65.55712     1.218     0.836    -15.398     137.5464  23.5084        212
 3.50   0.0244    345.4642    865.4515  68.20     6123.644     2.667     2.209      6.222     137.4841  18.5825        213
 3.98   0.6053    291.4327    246.6413 -42.86     246.8306     1.423     1.145      4.764     137.5775  22.0690        214
 6.26  99.0000    287.1843   1349.6359 -73.86    -182.9161     0.946     0.646      4.875     137.5464  99.0000        215
 0.00  99.0000    287.2773    413.5685   4.22     -201.275     1.378     0.986    -39.220     137.4997  99.0000        216
 3.50   0.1968    301.3028    561.8761  64.91     758.3386     1.496     1.466      4.669     137.4063  20.8503        217
 5.17   0.2739    307.6681     83.5607  77.64     545.3195     2.242     1.439      8.703     137.5153  21.2084        218
 7.58  99.0000    289.4767    887.4653  89.49    -122.3469     1.088     0.499      3.574     137.3907  99.0000        219
 7.07  99.0000    287.0015   1409.7196 -78.71    -35.38016     0.733     0.677      4.399     137.5464  99.0000        220
 6.60   1.0052    290.0248      4.5253 -89.49     134.8941     0.770     0.499      2.388     124.8586  22.7250        221
 3.50   0.0175    321.1644    695.6067  18.18     8538.217     1.751     1.746      4.867     137.5308  18.2216        222
 5.97   0.5198    294.5691    885.7814 -13.77      287.333     1.123     0.927      5.657     137.5308  21.9040        223
 8.51  13.1812    291.4320    780.2241  20.03     11.32858     0.749     0.451      2.971     137.4997  25.4146        224
 7.31  99.0000    291.4998    263.9399   1.36    -8.142329     0.800     0.500      1.571     137.3752  99.0000        225
 0.00  99.0000    293.4701   1215.5039  41.56    -253.4486     0.503     0.496      0.000     137.4374  99.0000        226
 3.50   0.2507    320.5865    639.6574 -72.38     595.8962     2.552     2.058      5.597     137.5464  21.1121        227
 6.79   1.2339    310.4871    315.5935  75.60     121.0146     1.543     1.181      2.868     137.4997  22.8429        228
 3.95   0.0906    326.5734    593.7057   9.84     1648.172     2.204     2.157      6.854     137.4686  20.0075        229
 3.58   0.4820    308.9672    983.5322 -89.34     309.9207     1.095     0.936      3.287     137.5464  21.8219        230
 3.93   1.0836    316.0285    225.1859  -8.63     137.8653     1.406     1.010      5.346     137.5619  22.7014        231
 0.00  99.0000    313.3401   1267.5038 -80.40    -246.1204     1.108     0.773      0.000     137.4063  99.0000        232
 5.51  99.0000    312.9740   1494.7429  69.90    -100.5649     0.707     0.683      3.689     137.5619  99.0000        233
 7.36   5.2549    313.2003    152.7806  44.97      28.4161     0.966     0.349      1.846     137.4997  24.4161        234
 4.81   0.5430    323.7596    954.0675  34.07     275.0389     1.712     1.298      3.215     137.5153  21.9515        235
 7.82  99.0000    315.8162   1450.9539  36.11    -147.7345     0.937     0.471      5.031     137.5464  99.0000        236
 7.00  99.0000    314.3308    849.3274 -45.15     -214.866     0.574     0.335      3.027     137.4063  99.0000        237
 0.00  99.0000    315.3412     14.2800 -48.47    -122.1324     0.556     0.342      0.000     137.4686  99.0000        238
 4.30   0.6380    328.5149   1544.5862 -26.58     234.0781     1.277     1.216      3.697     137.5153  22.1266        239
 4.98   0.4594    323.7972    340.4164  -2.37     324.9614     0.969     0.925      4.541     137.4686  21.7704        240
 6.33   0.3917    320.7392    574.4925   2.94     381.0107     0.968     0.709      4.870     137.4374  21.5977        241
 0.00  99.0000    322.0090   1533.9908  88.97    -286.4653     0.617     0.614     -5.693      137.453  99.0000        242
 8.11   0.7042    333.5910    456.0127  68.67     212.0125     1.959     0.921      2.672     137.4686  22.2341        243
 3.52   0.7004    331.3202     91.5481 -34.84     213.0878     1.269     1.223      3.878     137.4374  22.2286        244
 3.50   0.0312    354.8663    430.0782  69.89      4781.05     2.136     1.974      5.666     137.3907  18.8512        245
 8.29 119.5062    323.4671   1094.5117 -40.74     1.248948     0.503     0.496      3.015     137.4374  27.8086        246
 4.44   0.4399    334.2143   1438.9681 -28.19     339.5532     1.275     1.206      3.242     137.5464  21.7227        247
 6.00   1.5113    328.1156    242.1608 -47.14     98.80407     0.846     0.659      2.611     137.4997  23.0631        248
 3.50   0.0251    396.2005   1459.7301 -69.74      5959.21     1.749     1.720      4.547     137.5775  18.6120        249
 7.25   0.5298    349.3573    918.1536 -17.18     281.9267     1.960     1.328      9.345     137.5464  21.9247        250
 4.63   0.9920    335.1936    621.9894  88.50     150.4993     0.944     0.753      1.651     137.4686  22.6062        251
 6.08  99.0000    335.6044    609.3881 -33.31    -184.5035     1.015     0.880      5.039      137.453  99.0000        252
 3.50   0.1607    349.0506     52.9444 -75.88     929.0479     1.460     1.426      3.617     137.5153  20.6299        253
 5.39   1.3168    336.1012    811.3517 -13.35     113.2608     1.234     0.834      3.753     137.3284  22.9148        254
 5.51   0.4023    338.5684    804.0828  -9.45      371.174     2.421     0.881      7.359     137.4997  21.6261        255
 3.50   0.0162    367.2395    759.5045   0.66     9191.392     1.814     1.773      4.847     137.4063  18.1415        256
 3.50   0.0451    366.3889    441.0547  63.26     3310.228     1.821     1.679      4.699      137.593  19.2504        257
 5.22  99.0000    340.1323   1502.1522 -46.05    -199.3026     0.823     0.663      3.138     137.4841  99.0000        258
 4.86   0.3423    347.0647     40.9018 -48.75     436.1133     1.214     1.063      5.510     137.4686  21.4510        259
 3.50   0.0034    394.2305    229.6230 -54.04      44309.3     2.065     1.986      5.336     137.4997  16.4338        260
 3.50   0.0987    360.3615   1498.8522 -13.18     1512.738     1.755     1.487      4.001     137.5308  20.1006        261
 4.03   0.3945    374.3507    752.1791  56.72     378.6104     2.655     1.473     15.929     137.5464  21.6045        262
 0.00  99.0000    346.4816   1590.4858 -44.46    -309.1358     0.503     0.496      0.000     137.4219  99.0000        263
 3.50   0.9633    359.6993   1032.5001   1.10     154.7954     1.291     1.267      2.912     137.3128  22.5756        264
 6.50   5.4503    352.5026   1578.9888 -62.51     27.38838     1.060     0.657      5.476      137.453  24.4561        265
 4.46   0.8088    358.7320    531.6467 -23.78      184.614     1.407     1.248      3.587     137.4997  22.3843        266
 6.49   0.7146    353.4607    350.4528  44.32     208.9126     1.331     0.538      4.215     137.4686  22.2501        267
 4.83   0.5152    362.4112   1414.2524  82.41     290.0361     1.495     1.276      7.108      137.593  21.8939        268
 0.00  99.0000    355.1958   1397.0649  13.00    -41.14566     1.008     0.826   -255.007      137.593  99.0000        269
 6.24   1.2832    354.0997    825.8558  43.53     116.2529     0.841     0.667      4.519     137.3596  22.8865        270
 7.70  99.0000    352.6707   1462.6721 -45.06    -25.12377     0.573     0.336      1.699     137.3907  99.0000        271
 0.00  99.0000    352.5137    537.4805 -18.75     -223.806     0.973     0.412      0.000     137.4219  99.0000        272
 5.92   3.6966    360.6982    368.3151 -71.05     40.35406     1.237     1.105      7.236     137.3596  24.0353        273
 5.32   0.7698    358.4791   1046.1855 -49.17     194.0614     1.116     0.727      2.716     137.5619  22.3302        274
 3.50   0.5960    372.3844   1082.2842   6.90     250.6389     1.675     1.545      3.363     137.5464  22.0524        275
 0.00  99.0000    359.7108   1449.0054  10.60    -86.60963     0.717     0.690      0.000     137.4686  99.0000        276
 8.42  99.0000    358.3394    926.3115 -46.32    -127.6678     0.570     0.337      2.741      137.453  99.0000        277
 5.38   0.7015    368.4609    208.4732 -58.12     212.7996     1.404     1.135      4.049      137.453  22.2301        278
 3.51   0.2756    371.9202    990.9650  30.20     541.7509     1.343     1.288      3.902     137.4841  21.2155        279
 3.93   0.8115    369.5190     69.8423 -34.13     183.9853     1.455     1.343      4.441     137.4841  22.3880        280
 0.00  99.0000    361.7469     14.9959   3.33    -153.6089     0.724     0.684     -6.945     137.6241  99.0000        281
 6.45   0.7785    365.2277    940.2377  16.16     191.8847     0.952     0.866      4.446     137.5464  22.3424        282
 0.00  99.0000    363.2267    949.9979   0.09    -101.3976     0.685     0.419      4.111     137.4997  99.0000        283
 3.50  12.0518    374.2940     85.4472 -24.09     12.38039     1.144     1.070      1.670     137.3907  25.3182        284
 3.50   0.0212    397.1705    352.8746 -57.49     7054.139     1.772     1.711      4.789     137.4997  18.4289        285
 7.14   0.4273    381.6652      9.4809 -89.02     349.2339     1.498     1.338      8.985     137.4063  21.6922        286
 4.15   0.3992    395.6043    625.2817  88.59     374.0573     2.408     1.925     12.579     137.5153  21.6177        287
 3.50   0.0037    418.7044    431.5894 -51.63     40778.64     2.003     1.969      5.313     137.4686  16.5239        288
 4.78   0.5575    381.4241     65.6093  38.93     267.8743     1.432     1.240      5.110     137.5153  21.9802        289
 0.00   0.4987    379.2187    510.2682 -49.00     299.5592     1.289     0.971      3.366     137.5619  21.8588        290
 4.60   0.4528    379.1660    123.8193   9.54     329.7949     1.236     1.155      2.911     137.5153  21.7544        291
 3.50   0.0076    414.6540    835.7775 -88.21     19588.97     1.898     1.854      5.075     137.5775  17.3200        292
 6.67   2.6126    376.9167    139.8434 -47.62     57.14204     0.844     0.658      1.376     137.4686  23.6576        293
 3.50   0.1162    392.8817   1087.1349  45.19     1283.807     1.515     1.474      4.392     137.4063  20.2787        294
 8.44   0.2506    379.7917      1.3926 -71.39      452.003     0.768     0.446      4.415     104.3187  21.4121        295
 0.00   1.3331    381.1964   1483.8033 -48.17     111.9984     0.760     0.561      4.557     137.4841  22.9270        296
 4.06   0.9211    388.0123   1194.0193 -49.63      162.099     1.165     1.082      3.284     137.4841  22.5255        297
 0.00   2.1702    382.6904    248.5648  30.01     68.78447     0.953     0.535      0.000      137.453  23.4563        298
 7.37  99.0000    380.6730    934.2947  46.82    -160.7433     0.557     0.343      0.484     137.4219  99.0000        299
 3.50   0.5365    388.8528    259.2482 -78.61     278.3464     1.105     0.958      3.413     137.5153  21.9385        300
 6.18   0.1225    410.7338      2.1228 -87.64     972.1904     3.173     0.966      5.930     109.6974  20.5806        301
 5.41   0.3445    402.6141    525.0059  62.91     433.2504     2.250     1.386      5.430     137.4219  21.4582        302
 3.50   0.9014    390.9412     93.8525 -22.46     165.6171     1.212     1.065      3.477     137.4686  22.5022        303
 3.50 280.6525    389.6815   1166.6106  43.34    0.5321829     0.952     0.853      4.322     137.5308  28.7348        304
 3.50   4.5109    395.5294    976.0341 -32.91     33.10686     1.374     1.250      2.556     137.5153  24.2502        305
 0.00  99.0000    390.4991   1063.9867 -87.38    -66.60041     0.786     0.700      0.000      137.453  99.0000        306
 7.39   0.6983    385.5190    101.4717  48.46     213.7089     0.501     0.498      2.092     137.4219  22.2254        307
 3.50   0.0102    436.9851    250.2817  81.91     14661.54     1.897     1.875      5.155     137.5464  17.6346        308
 4.28   0.1459    419.8282    157.4336  30.52     1023.421     2.057     1.756      7.605     137.5308  20.5249        309
 3.50   0.0012    460.3299    806.0066 -41.85     126507.2     2.251     2.119      5.382     137.5619  15.2947        310
 7.18   1.3518    393.4946    144.2016 -88.04     110.4493     0.993     0.732      5.331     137.4841  22.9421        311
 5.30  99.0000    391.8295    682.1611  45.39    -67.93623     0.806     0.665      2.152     137.5464  99.0000        312
 5.51  99.0000    400.5107    811.0035   5.62    -36.67505     1.085     0.954      1.658     137.4686  99.0000        313
 4.94   1.3516    412.5052   1560.7510 -60.60     110.3782     1.948     1.122      1.619     137.3752  22.9428        314
 0.00  99.0000    398.3204   1256.6912  45.62     -196.752     0.561     0.341      0.000     137.4219  99.0000        315
 3.50   0.0460    423.2346    924.7899  78.66     3247.342     1.649     1.634      4.823     137.5464  19.2712        316
 5.62   0.3343    420.5860    132.6595 -29.66     446.7582     3.142     2.146     15.890     137.5153  21.4248        317
 3.50   0.5572    406.1619    280.5759 -26.22     268.0296     1.233     1.062      2.743     137.5308  21.9795        318
 4.59  99.0000    400.9016    984.5642  24.92    -15.22187     1.140     0.580      4.256     137.3752  99.0000        319
 3.77   0.7120    414.2244    557.6135  74.50     209.7348     1.819     1.544      5.082     137.4997  22.2458        320
 7.71   0.9190    413.5547    178.6849  -9.00     162.4606     0.986     0.478      4.754     137.4841  22.5231        321
 4.29   3.1755    417.9401   1203.0493  58.41     47.01809     1.442     1.326      4.679     137.4841  23.8693        322
 4.85   0.2183    429.7754    717.6069  51.83      684.058     2.542     2.004      1.101     137.5308  20.9623        323
 4.19   0.3215    425.8257   1177.7605  39.49      464.612     2.049     1.609      7.007     137.5464  21.3823        324
 3.50   1.2032    418.4518    772.9769 -81.00     124.1888     1.324     1.183      2.545      137.593  22.8148        325
 5.20   1.3611    416.1201    938.7930  36.52     109.7234     1.551     0.973      4.794     137.5153  22.9493        326
 3.97   0.0379    466.8566    848.9338  22.57     3935.315     8.997     2.542     22.199     137.4686  19.0625        327
 5.42   0.8917    418.9928   1579.1770 -65.58     167.4555     1.144     1.108      3.988     137.4997  22.4902        328
 5.31  11.2257    421.8029    629.8021 -20.41     13.30353     1.587     1.005      4.892     137.5153  25.2401        329
 4.99   1.1981    419.8560   1090.8813 -59.51     124.5918     0.852     0.848      3.683      137.453  22.8113        330
 5.71   0.9407    417.2318   1294.5748   1.25     158.7219     1.012     0.728      2.821     137.4841  22.5484        331
 3.50   0.7401    423.3969   1062.2841  -0.26     201.7606     1.121     1.021      3.708     137.4997  22.2879        332
 3.50   0.1193    432.0715   1420.5468  -2.38     1251.499     1.538     1.426      4.167     137.4686  20.3064        333
 3.81   0.4626    425.2731    298.3063  83.28     322.6725     1.072     1.002      3.957     137.4374  21.7781        334
 3.50   0.0327    449.3139     19.5244  73.34     4563.731     1.777     1.668      4.990     137.4063  18.9017        335
 7.84  99.0000    419.6560    669.6992 -47.12    -23.36073     0.567     0.338      0.807     137.3596  99.0000        336
 3.50   0.2749    433.0534    149.3967   7.82     543.5295     1.414     1.310      4.199     137.6086  21.2119        337
 3.50   4.5480    425.6503   1007.2427 -59.62     32.84395     0.984     0.781      1.805     137.5464  24.2589        338
 5.58   0.6011    434.6316    118.3425  47.66     248.5274     1.701     1.614      3.504     137.5619  22.0616        339
 4.78   1.1876    429.4382   1307.4174  -7.30     125.7965     0.909     0.857      2.455     137.5619  22.8008        340
 3.77   0.2052    444.1205    120.4231 -29.77     727.8099     1.819     1.602      4.350     137.5153  20.8950        341
 3.50   0.2541    439.0537    303.9865  66.61     588.0344     1.314     1.283      3.792     137.5619  21.1265        342
 3.50   0.0293    456.8200     32.7297  43.75     5106.355     1.735     1.718      4.897      137.593  18.7797        343
 4.20   1.0838    432.5634    404.8491 -22.27     137.8316     1.088     0.930      3.615     137.5464  22.7016        344
 0.00  99.0000    432.7832    351.6000  15.53    -38.03806     0.946     0.927     -0.127     137.4841  99.0000        345
 3.50   0.1678    446.5916    882.1754   6.37     890.1353     2.773     1.769      7.075     137.5153  20.6764        346
 6.89   1.3533    436.9601   1380.9481 -20.67     110.3531     1.230     0.923      6.549     137.5153  22.9430        347
 3.50   0.1008    494.7540     80.8511  81.65     1481.915     4.085     2.761      8.231     137.5619  20.1229        348
 5.02   1.6783    442.8858    653.5627  22.19     88.97572     1.132     1.042      2.768     137.4997  23.1768        349
 4.30   0.4925    442.8949    172.7214 -61.46     302.9328     1.179     1.158      4.880     137.3907  21.8466        350
 3.67   0.0112    532.1556    517.1599  31.15     13293.33     6.382     5.170     15.332     137.5464  17.7409        351
 5.44   0.9183    441.3893    957.9933  -4.80     162.5572     1.086     0.935      2.993      137.453  22.5225        352
 5.99  99.0000    436.5044     52.4720 -49.04    -40.76841     0.502     0.497      3.014     137.4374  99.0000        353
 5.24   1.9416    444.7752   1503.9323 -21.73     76.93405     1.150     1.058      2.089     137.5464  23.3347        354
 3.50   0.0797    462.7179    466.8706  48.47      1872.57     1.637     1.533      4.455     137.4063  19.8689        355
 0.00  99.0000    442.5129   1566.0204 -32.58    -214.5012     0.784     0.317      0.000     137.5153  99.0000        356
 4.69   4.2997    453.5555   1222.9102 -74.13     34.71721     1.373     1.168      4.685      137.453  24.1986        357
 3.70   1.8616    452.0454   1531.8118  14.78      80.2323     1.192     1.110      2.386     137.5308  23.2891        358
 0.00  99.0000    449.5298   1353.0096  87.22     -283.714     0.768     0.705      4.605     137.5775  99.0000        359
 8.53   3.4883    445.4016    766.8143 -18.77     42.80264     0.755     0.450      4.293     137.4841  23.9713        360
 4.23   0.9586    450.5846   1129.8898  22.54      155.804     1.048     0.968      3.629     137.5308  22.5686        361
 3.50   0.1052    470.5999    252.7415  50.48     1421.073     1.955     1.492      4.673     137.6086  20.1685        362
 3.50   0.2491    460.1046   1094.5945  32.29     599.4428     1.559     1.310      4.544     137.4841  21.1056        363
 4.92   0.8792    472.2308   1131.0477  84.79     169.9358     2.611     0.936      2.382     137.5775  22.4743        364
 4.00   0.3623    460.4592    723.5194  -9.75     412.0385     2.008     1.337      6.182      137.453  21.5127        365
 5.58   0.6027    466.1232   1196.8052  86.46     247.8502     1.390     1.287      3.875     137.5464  22.0645        366
 3.50   0.0696    471.0899    733.2233 -16.58     2145.162     1.569     1.510      4.637     137.4997  19.7213        367
 6.42   0.5533    458.1788   1383.9647 -87.43     269.9702     0.921     0.751      5.406     137.5464  21.9717        368
 7.17   3.3597    456.0132    483.0009  -0.13     44.44592     0.616     0.612      3.190     137.4997  23.9304        369
 3.50   0.0519    477.0041    921.4211 -46.24     2879.778     1.594     1.543      4.362     137.4997  19.4016        370
 5.13   0.5359    464.4150    127.5821 -24.63     278.6494     1.678     1.082      4.618     137.5153  21.9374        371
 8.09  99.0000    456.4054   1235.2415  18.80     -194.719     0.756     0.450      1.852     137.5464  99.0000        372
 4.75   1.3794    464.9676    559.8478  62.59     108.3028     1.153     1.063      5.018     137.5619  22.9634        373
 4.12   0.0843    495.0766   1185.2926 -27.32     1771.158     3.721     2.578     10.185     137.4219  19.9294        374
 4.50   0.2129    488.1509    838.1351  89.90     701.4053     3.114     1.271      5.492     137.4841  20.9351        375
 3.64   0.2292    477.1216   1275.4811  24.79     651.1929     1.520     1.447      3.827      137.453  21.0157        376
 3.50   0.6752    478.1282    680.9530 -69.84     221.1235     1.584     1.118      3.755     137.4841  22.1884        377
 5.67   0.6986    471.8579    780.1460  38.05     213.7014     1.169     1.023      5.307     137.4686  22.2255        378
 5.34   0.7122    468.2286    662.2830   5.40     209.6629     0.899     0.747      1.304     137.4997  22.2462        379
 3.50   0.1318    483.0058   1069.1318 -13.73     1133.499     1.425     1.393      3.988      137.593  20.4139        380
 6.34   1.4105    479.9701   1518.1163 -43.91     105.8691     1.789     1.243      4.502     137.4997  22.9881        381
 3.71   0.9549    475.1341   1166.8962   9.63     156.3497     1.153     1.133      2.009     137.4686  22.5648        382
 5.08   1.0179    483.3887    427.0775 -89.12     146.7805     1.694     1.187      7.258     137.5775  22.6333        383
 5.27   0.7312    480.2167   1308.2787  -2.92     204.2946     1.314     1.114      1.827     137.5464  22.2744        384
 7.12   3.2896    472.5219   1356.9840 -32.96     45.40789     0.773     0.322     -7.260     137.5464  23.9072        385
 3.50   0.0143    511.5095   1300.7717 -86.77     10453.86     1.829     1.817      4.908     137.4686  18.0018        386
 6.07   0.3006    487.8234    422.9539 -44.70     497.0117     2.045     1.076      7.094     137.5619  21.3091        387
 3.88   0.1514    503.2232    761.2128  -1.75     986.0132     2.439     2.160      8.628     137.4997  20.5653        388
 5.83   0.5858    485.4365    827.2610  65.73     254.9659     0.982     0.931      5.626     137.5308  22.0338        389
 6.04   1.6385    484.0174   1228.0122 -43.81     91.13522     0.884     0.535      1.683     137.4997  23.1508        390
 5.44   0.8912    484.1517    253.7907 -45.40      167.644     0.754     0.561      3.451     137.5775  22.4890        391
 3.69   0.0664    514.5347   1459.5621  24.61     2248.121     4.988     1.923     13.297     137.5308  19.6705        392
 4.96   0.3619    492.2638    572.9797 -16.57     412.8026     1.051     0.998      4.952     137.5619  21.5106        393
 0.00  99.0000    485.3231    344.3348 -44.47     -149.993     0.573     0.335      0.000     137.3907  99.0000        394
 6.65   0.7567    484.5451    941.4951  -5.88     197.2313     0.500     0.498      1.669     137.4219  22.3126        395
 3.50   0.0005    586.8701   1314.5153 -35.49     289093.4     2.943     2.338      5.736     137.4219  14.3974        396
 4.69   0.2533    500.9420   1308.7638 -71.74      589.569     1.465     1.321      5.646     137.5308  21.1237        397
 8.57   0.3886    487.2367    565.0085  -0.36     384.3488     0.709     0.425      3.597     137.5464  21.5882        398
 3.50   0.2426    501.1490    862.2006 -15.70     616.0629     1.401     1.338      4.061     137.6086  21.0759        399
 3.50   0.4562    497.0681    364.6265  11.29     327.3704     1.269     1.120      3.042     137.5308  21.7624        400
 4.58   0.4818    494.4022   1419.9250   1.42     310.0784     1.206     0.979      5.285     137.5775  21.8213        401
 8.07  99.0000    489.7211   1345.3462  41.28    -36.59949     0.558     0.341      3.347     137.4374  99.0000        402
 3.50   0.0777    512.4128   1308.8362  84.73     1921.904     1.572     1.419      4.650     137.5464  19.8407        403
 0.00  11.8931    501.8901    441.4094 -66.76     12.55275     1.009     0.950      6.054     137.4686  25.3032        404
 3.50   0.0003    630.2510    481.5388 -33.19     512181.5     2.926     2.732      6.060     137.4686  13.7764        405
 3.73   0.2293    509.0456    162.5765  -6.42     651.4332     2.537     1.351      7.010     137.5619  21.0153        406
 3.85   5.1693    504.1364   1567.5875 -65.68     28.90658     0.991     0.923      2.832      137.593  24.3975        407
 3.92   0.1955    512.8853   1177.8151 -45.51     763.8434     1.401     1.323      4.517     137.5153  20.8425        408
 7.33   1.3855    504.3701    324.4864  46.21     107.7851     0.987     0.965      3.927     137.5153  22.9686        409
 4.86   0.6671    509.0707    451.7997  -5.36     223.9728     1.341     1.207      7.494     137.5775  22.1745        410
 8.41   1.7322    503.9957   1333.5005  57.51     86.19377     0.786     0.317      4.717     137.4841  23.2113        411
 3.73   0.3956    518.2574    640.2863 -38.45     377.3711     1.631     1.509      3.895      137.453  21.6081        412
 0.00  29.6260    508.4677    306.9448   0.37     5.038612     1.117     0.912     -8.892      137.453  26.2942        413
 4.07   1.1278    517.4010   1517.8311  75.49     132.3882     1.287     1.158      2.010     137.4841  22.7454        414
 0.00  99.0000    509.1456   1383.9956  64.97    -154.0828     1.249     0.334    -46.698     137.6241  99.0000        415
 6.81   1.9213    509.5531    323.9884 -90.00     77.74512     0.835     0.689      3.949     137.5464  23.3233        416
 0.00   0.7487    507.2867    614.3271 -42.62     199.3111     0.554     0.344      0.000     137.4063  22.3012        417
 4.87   0.3233    519.7739    852.3243  66.09     461.8857     1.326     1.287      5.360     137.4997  21.3887        418
 5.46   0.5669    510.5128    805.0031   2.01       263.36     0.785     0.499      2.246     137.4841  21.9986        419
 6.18   0.3076    516.0262    165.0445  45.66     485.7999     0.899     0.528      1.302      137.593  21.3339        420
 0.00  99.0000    519.5546    580.8542  -2.29    -79.96249     0.976     0.907    -19.568     137.4997  99.0000        421
 0.00   9.7971    519.1706    828.1560  50.06     15.25032     0.761     0.565     -1.205     137.5775  25.0918        422
 6.99   0.9779    523.4246    328.6115  68.58     152.7095     1.063     0.316      1.685     137.5153  22.5903        423
 3.50   0.1079    539.3286    998.3593  84.68      1383.64     1.542     1.517      4.174     137.5153  20.1974        424
 6.18   0.3444    528.0428    163.3419  63.63     433.5595     1.365     0.877      5.947     137.4841  21.4574        425
 6.90   4.6561    523.0544   1056.4949  89.58      32.0529     0.784     0.500      4.351     137.4219  24.2853        426
 3.50   0.4305    543.1082    932.6009 -68.07     346.8024     2.481     1.055      4.673     137.4686  21.6998        427
 3.50   0.4061    535.0591    402.7671  29.08     367.7869     1.780     1.366      4.924     137.5464  21.6360        428
 0.00  99.0000    522.5049    307.4640 -47.04    -60.56755     0.508     0.490      0.000     137.4686  99.0000        429
 3.50   0.0243    571.7572   1241.3885 -60.45     6133.944     2.349     1.799      4.756     137.5308  18.5807        430
 3.65  99.0000    530.7306   1565.1608  16.56    -20.21485     1.043     0.936      1.731     137.5153  99.0000        431
 8.12  99.0000    536.3256   1598.6907  45.85    -24.73216     0.563     0.340      0.351     111.0159  99.0000        432
 0.00  99.0000    535.6013    282.7714  18.09    -42.07996     0.762     0.451     -2.516     137.4686  99.0000        433
 5.10   0.5240    545.2690    849.4210 -69.04     285.1225     1.064     0.975      4.570     137.5619  21.9124        434
 3.50   0.0701    558.0374   1040.2272  -7.47     2129.161     1.701     1.560      5.080     137.5308  19.7295        435
 3.51   0.0356    595.7530    781.1851 -54.10     4201.412     4.090     3.812      9.746     137.5464  18.9915        436
 3.50   0.0937    570.6760   1446.9576  21.73     1593.109     3.238     2.105      6.347     137.4841  20.0444        437
 3.50   0.0956    570.2459     44.0406  46.68     1562.914     2.469     1.733      5.875     137.5308  20.0652        438
 3.50   0.0173    581.1895    317.4522  39.54     8641.756     1.861     1.787      5.117      137.593  18.2085        439
 3.50   0.8694    554.9692    777.1648 -34.96     171.7879     1.123     1.087      3.017     137.5308  22.4625        440
 6.03   0.8973    552.6613    964.6931 -23.76     166.3397     1.003     0.910      4.929     137.4374  22.4975        441
 7.04   0.5994    547.7064     70.3128  43.83     248.9383     0.551     0.345      2.151     137.3907  22.0598        442
 5.82   3.4195    558.7036   1404.2056  18.45      43.6687     2.676     1.080     10.718     137.4997  23.9496        443
 5.31  99.0000    558.3064   1067.8971  72.61    -42.82182     1.433     1.061      1.544     137.3907  99.0000        444
 0.00  99.0000    553.8707    804.1193  58.41    -82.35726     0.871     0.852      0.000     137.4374  99.0000        445
 3.50   0.0172    579.6451    143.1512 -59.43     8696.032     1.755     1.734      5.040     137.5619  18.2017        446
 4.35   0.2396    563.8168    137.7229  87.70     623.5343     1.326     1.272      5.305     137.5619  21.0628        447
 0.00  99.0000    555.9983   1593.9867 -86.52    -154.8526     0.609     0.609    -43.527     135.5248  99.0000        448
 3.50   2.2035    561.9505    904.2209  47.83     67.79042     1.128     0.981      3.457     137.5464  23.4721        449
 0.00  99.0000    561.8150    839.2224 -45.51    -73.98031     1.397     0.994    -13.118     137.4841  99.0000        450
 3.50   0.6987    560.1713   1502.7568  42.84     213.8489     0.901     0.859      1.421     137.5775  22.2247        451
 0.00   1.9269    565.9980    630.5018 -86.25     77.46868     1.043     0.937      0.000      137.453  23.3272        452
 0.00   1.5099    563.3209   1168.8219 -29.68      98.9197     1.075     0.870    -23.393     137.5308  23.0618        453
 0.00   1.4488    561.7631    592.9919  56.29     103.1025     0.812     0.499      0.300     137.5464  23.0168        454
 3.87   0.5340    575.2853   1000.2173 -13.71     279.6548     1.831     1.677      3.925     137.5153  21.9334        455
 5.34  99.0000    569.1505    112.3414 -73.83      -40.239     1.170     0.952      0.643     137.4997  99.0000        456
 0.00  99.0000    566.4319   1114.7029  29.81    -154.9622     1.122     0.947      6.733     137.3907  99.0000        457
 5.48   0.5634    577.1334    737.8950  47.17     264.9839     1.661     1.356      8.255     137.4686  21.9920        458
 6.48   3.5929    569.5100   1108.6602  37.72     41.54729     1.061     0.826      6.366      137.453  24.0036        459
 8.54   0.4847    568.1776    708.6043 -71.45     308.0843     0.755     0.449      4.530     137.4997  21.8283        460
 6.22   2.0208    573.9214    547.8975  -1.63     73.83516     1.188     0.990      2.450     137.3907  23.3793        461
 3.50   0.3704    583.4811     74.1990   9.02     403.2359     1.344     1.330      3.466     137.5153  21.5361        462
 5.34   0.3389    578.4715    677.8019  53.07     440.9259     1.391     1.379      6.459     137.5775  21.4391        463
 8.32   0.4518    577.0109    481.0588 -36.24     330.7206     1.087     0.936      6.524      137.593  21.7513        464
 8.45   0.5147    569.5167   1177.4861 -43.45     289.9635     0.501     0.499      3.003     137.4219  21.8941        465
 4.79   0.3041    577.8525    843.5962  24.23     491.4514     1.947     0.983      5.894     137.6086  21.3213        466
 7.66   4.2255    574.1826   1211.1676  39.77     35.35111     0.754     0.567      2.779     137.5464  24.1790        467
 8.34   3.1782    577.6614   1351.6525 -44.94     46.97803     1.085     0.649      6.512     137.4841  23.8703        468
 4.56   2.8398    577.8090    694.9749  84.60     52.58831     0.901     0.753      2.301     137.5153  23.7478        469
 5.90   1.2572    578.4717   1555.6345  -1.38     118.7856     0.992     0.783      4.718     137.5153  22.8631        470
 5.54   1.0974    584.3524   1171.3678  21.89      136.128     1.265     1.146      5.514     137.5619  22.7151        471
 6.00   2.3939    582.9677   1099.5016 -67.28     62.32689     1.245     0.945      2.664     137.3907  23.5633        472
 3.92  27.0737    581.5492   1485.3169  36.20     5.513605     0.999     0.784      2.240      137.453  26.1964        473
 0.00   2.3067    582.4998   1183.5687  39.48     64.68442     0.913     0.910      0.000     137.3907  23.5230        474
 4.14   0.6884    583.6616    209.6294  40.34     216.9651     0.985     0.860      3.921     137.5308  22.2090        475
 5.08   0.7472    593.0610    881.0075 -85.22     200.0315     1.434     1.118      5.463     137.6241  22.2973        476
 5.23   0.3287    587.6546   1137.9164  -1.23     454.0465     1.103     1.002      5.047     137.4219  21.4072        477
 0.00  99.0000   1003.4000   1236.6925  33.84    -87.63459     1.153     0.893      4.760     137.4686  99.0000        478
 3.81   0.6941   1598.6646    709.2863   9.91      174.005     1.295     0.906      3.279     111.2085  22.4486        479
 3.78   0.1579   1596.5784    653.1301 -23.18     854.9076     2.135     2.022      6.560     124.3262  20.7202        480
 5.36   0.4008   1599.1133     17.0033   3.58     292.5901     1.930     0.883      2.607     107.9872  21.8843        481
 3.50   0.2601   1593.4664    372.3283  55.11      571.216     1.717     1.437      5.313     136.7976  21.1580        482
 5.04   1.3618   1592.2495   1383.2131 -10.91     109.7167     1.585     1.167      3.392     137.5775  22.9493        483
 8.57   0.6378   1593.4902    299.4875  45.16     232.8672     0.505     0.494      1.127     136.7664  22.1322        484
 0.00  99.0000    895.5063   1241.5118 -45.82    -159.7797     0.502     0.498      0.000     137.3907  99.0000        485
 7.08  99.0000    891.8006   1272.2083 -46.43    -101.3527     0.751     0.561      0.328      137.453  99.0000        486
 0.00  99.0000    891.1500   1212.9169  42.06    -117.5978     0.840     0.664      0.000      137.453  99.0000        487
 4.18   0.1540    887.5593    324.2406  14.96     970.4363     2.341     1.708      7.242     137.5775  20.5826        488
 3.84   0.2822    884.7941   1303.2223  72.74      529.058     2.260     1.543      6.781     137.4997  21.2412        489
 3.50   0.3754    887.7294    679.5152 -40.67     397.4593     1.479     1.212      4.316     137.4063  21.5518        490
 5.47   0.4836    888.1436    989.1344 -51.62     308.7119     0.810     0.667      3.320     137.4686  21.8261        491
 3.59   0.2434    884.8283   1498.7874 -57.64     613.7938     1.388     1.324      3.998     137.5464  21.0799        492
 8.05  99.0000    886.8381     12.8772 -45.02    -33.30196     0.849     0.667      5.093     137.4841  99.0000        493
 4.72   0.2832    883.9120    337.2602  25.10     527.1809     2.132     1.395      7.632      137.453  21.2451        494
 5.13   0.4778    882.1964    443.7809  37.39     312.5328     0.897     0.861      4.627     137.4997  21.8128        495
 7.02   0.7495    911.4836    457.5420 -54.52     199.1466     0.501     0.497      3.008     137.4374  22.3021        496
 4.74   0.1300    876.9567   1175.6000 -50.85     1149.724     2.415     2.132      8.690     137.5775  20.3985        497
 3.50   0.3246    878.5925    670.2439 -25.79     460.2259     1.603     1.419      5.048     137.5619  21.3926        498
 4.51   0.0387    877.6136    222.5462  89.06     3859.525     8.770     3.637     20.003     137.5619  19.0837        499
 3.50   0.2705    876.6187    959.5078 -85.22     552.0461     1.323     1.228      3.748     137.4997  21.1951        500
 3.50   0.0006    858.2025   1223.1316 -41.51     253009.3     3.560     2.601      6.060     137.5775  14.5422        501
 3.50   0.1827    866.6861    937.9435  45.39     816.8218     2.665     1.610      8.084      137.453  20.7697        502
 3.50   0.5520    868.4059    642.1082  69.20      270.444     1.205     1.117      2.697      137.453  21.9698        503
 5.18   8.6927    868.9894   1434.9409   8.40      17.1918     0.790     0.773      2.801     137.6086  24.9617        504
 3.50   2.2994    865.8255    453.1175 -39.68     64.94012     1.236     1.096      3.183     137.4997  23.5187        505
 0.00  99.0000    909.1953   1573.9948 -23.96    -136.3651     1.183     1.087      7.101      137.453  99.0000        506
 6.92   0.4964    864.8615   1176.0391  -2.97     300.8305     1.261     1.092      7.567     137.5153  21.8542        507
 7.16  14.0382    865.7186    814.9726  13.26      10.6382     0.730     0.678      0.248     137.5153  25.4828        508
 3.50   0.3907    863.9438   1477.8932  44.93     381.9833     1.143     1.013      3.474     137.4374  21.5949        509
 0.00  99.0000    909.2665    758.5992 -71.30    -263.3175     0.750     0.451    -19.852     137.5775  99.0000        510
 5.86   0.9610    863.0336    772.0253  22.92     155.4063     1.279     1.044      2.243     137.5153  22.5713        511
 5.75   0.5981    863.3834    353.6013 -40.94     249.6384     1.103     1.055      4.001     137.4841  22.0567        512
 3.72   0.1521    858.6947   1155.9232 -63.95     981.3882     1.483     1.379      4.305     137.4219  20.5704        513
 4.84   0.3282    861.0693    266.6051  30.85     455.3029     1.553     1.084      4.743     137.5775  21.4042        514
 3.99   0.5259    859.7127   1552.9141  25.97     283.7537     1.141     1.057      4.222     137.4063  21.9176        515
 4.76   0.4687    861.1344    635.0600   0.49     318.5357     1.181     0.762      4.029     137.4686  21.7921        516
 3.93   0.3526    857.5074   1338.1282 -56.23     423.3349     1.677     1.461      3.985     137.4374  21.4833        517
 6.14   0.3996    857.9104    572.8206 -34.87     373.6129     1.648     0.934      7.595     137.4841  21.6189        518
 4.34   0.3454    854.6434    543.5767 -83.92       432.48     1.618     1.271      5.890     137.5619  21.4601        519
 4.70   0.3195    907.1750    657.8374  42.10     467.5005     1.317     1.212      5.266     137.5308  21.3755        520
 6.39   3.1712    854.6082   1428.6935 -24.72     47.08261     1.331     0.827      4.754     137.4841  23.8678        521
 6.45   1.4322    854.1462   1346.3501   5.87     104.2614     1.124     0.849      1.742     137.4997  23.0047        522
 6.13   0.8453    854.8940    685.1011  43.42     176.4922     0.871     0.652      3.663     137.3752  22.4332        523
 3.50   1.0175    850.0403   1301.9939  45.83     146.8004     1.004     0.883      2.309     137.5464  22.6332        524
 7.13   1.0265    848.1126   1458.1876 -43.05     145.4985     0.849     0.666      3.065     137.5308  22.6429        525
 5.18   0.3532    845.5048    359.5244  -0.70      422.597     2.426     1.515     10.753     137.4219  21.4852        526
 0.00  17.1941    846.6936   1562.2535 -77.42     8.681672     0.965     0.884      0.000      137.453  25.7035        527
 3.50   0.1511    842.4457   1104.7205  22.02      987.983     1.928     1.580      4.434      137.453  20.5631        528
 3.50   0.2488    843.9308   1062.4220 -72.44      600.491     1.334     1.261      4.019     137.5619  21.1037        529
 4.05   0.1982    875.3674    540.0737 -52.86     753.5005     1.227     1.153      4.219     137.4841  20.8573        530
 6.62   0.5957    907.8693    258.7793  43.48      250.806     1.247     1.032      4.793     137.5775  22.0517        531
 7.13  99.0000    841.5234   1496.4910 -43.72    -90.26489     0.505     0.494      2.307     137.4219  99.0000        532
 5.96   2.2220    839.9102    545.6884 -21.13     67.14108     0.925     0.682      4.292     137.3752  23.4825        533
 6.61   0.4427    837.7458    898.4065 -41.81     337.6639     1.443     0.945      5.214     137.6397  21.7288        534
 4.46   0.5874    836.9169    990.4441  -0.68     254.1351     1.358     1.171      5.451     137.4686  22.0373        535
 3.50   0.1034    835.5178    297.0656 -20.94     1443.005     1.492     1.461      4.389     137.4063  20.1518        536
 3.91   0.9116    835.7867   1519.0629 -39.95     163.8646     1.132     1.070      4.111     137.5464  22.5138        537
 3.62   6.9080    837.2098    493.1679  48.67      21.6185     0.753     0.560      3.332     137.5153  24.7129        538
 3.50   0.4525    834.6255    817.6043 -27.98     330.0478     1.274     1.173      3.468     137.5153  21.7536        539
 3.52   0.0609    868.4489   1102.0282 -55.94     2452.905     2.166     1.934      5.546     137.5775  19.5758        540
 8.45   0.3179    831.7668   1229.2473 -16.35     469.8859     1.246     0.951      7.474     137.5464  21.3700        541
 6.25  99.0000    830.9784   1057.5098 -87.04    -120.0281     0.777     0.499      1.622     137.4841  99.0000        542
 5.26   0.3801    830.7745    403.0079  89.03     392.9066     0.885     0.754      1.816     137.5308  21.5643        543
 3.50   0.0256    822.0415    652.7610  75.58     5830.856     1.749     1.736      4.876     137.5619  18.6357        544
 7.47   0.5572    826.0176    666.4923  87.98     268.0139     0.789     0.499      3.931     137.5153  21.9796        545
 5.71   0.4672    825.9630    597.2975 -84.25     319.3632     0.742     0.655      3.748     137.3907  21.7893        546
 0.00  99.0000    873.6851   1406.3474  43.56    -90.91139     0.575     0.334      0.000     137.4374  99.0000        547
 5.25  99.0000    823.8605    673.1242  46.29    -72.97955     0.816     0.675      3.516     137.4686  99.0000        548
 4.59   0.7638    821.1354    329.1494 -67.85     195.4798     1.076     0.888      1.035     137.4841  22.3222        549
 3.50   0.7233    818.8610   1397.0851 -45.41     206.3491     1.144     1.064      3.354     137.4374  22.2635        550
 0.00   6.8349    818.6708   1574.1233  71.52     21.83517     0.919     0.676      0.000     137.4219  24.7021        551
 4.05   0.4720    817.9814    777.7371 -59.02     316.4755     1.338     0.883      3.844     137.5464  21.7991        552
 3.82  99.0000    817.9122    701.1309 -38.57    -89.82284     1.141     1.079      4.358     137.3907  99.0000        553
 6.34   0.4367    818.0352    745.4899 -89.14      341.797     0.783     0.500      4.079      137.453  21.7156        554
 3.50   0.3431    816.1765    431.9580 -26.58      435.403     1.209     1.028      3.010     137.5619  21.4528        555
 7.19   1.6216    816.5349    598.5266 -41.35      92.0232     0.501     0.497      2.265     137.4063  23.1403        556
 7.36   0.6296    814.4968   1579.9858   1.80     237.1893     0.791     0.500      2.384     137.4997  22.1123        557
 0.00  99.0000    808.9918   1543.1647  57.22    -186.1599     1.142     1.042     -3.726     137.5464  99.0000        558
 6.93  99.0000    809.9639    649.7502 -88.06    -173.5629     0.674     0.433      3.954     137.5464  99.0000        559
 3.97   1.6020    808.6161    842.6494 -50.12     93.25282     1.036     0.909      3.110     137.5619  23.1258        560
 3.50   0.0283    802.1586   1377.2738 -65.88     5278.302     1.792     1.701      4.709     137.4841  18.7438        561
 3.50   0.6096    814.7897    876.9742  75.05     244.9368     1.754     1.630      3.408     137.4997  22.0774        562
 3.50   0.0098    797.5841    694.0739 -88.04     15324.27     2.554     1.819      5.792     137.6086  17.5865        563
 3.50   0.0625    799.6685     39.3059 -28.12     2388.842     1.829     1.549      4.692     137.4374  19.6045        564
 7.34  99.0000    800.7267   1595.2334 -83.24  -0.04971028     0.879     0.737      1.995     130.9479  99.0000        565
 5.62   0.4145    797.8363    177.1652  81.27     360.5407     1.224     0.848      4.981     137.6086  21.6576        566
 6.04  99.0000    797.8347   1484.1553 -45.96    -7.494176     0.755     0.566      4.154     137.5775  99.0000        567
 4.63   0.3428    793.4496    294.0367 -70.70     435.6868     1.476     1.243      4.968     137.5308  21.4521        568
 8.66  99.0000    794.6730   1123.6925 -46.01    -55.65283     0.563     0.340      3.379      137.453  99.0000        569
 3.50   1.1991    788.5343    407.2975  68.90     124.4834     0.981     0.947      3.904      137.453  22.8122        570
 5.08  99.0000    785.3484   1347.4921  39.89    -76.11912     0.955     0.834      4.714     137.4374  99.0000        571
 3.50   0.0674    773.2396   1425.9700 -88.70     2215.325     3.910     2.319      7.356     137.5619  19.6864        572
 7.77   0.3627    781.0482    472.5162 -88.57     411.5174     0.784     0.500      4.702      137.453  21.5140        573
 5.72   3.0847    780.2502   1265.4381  -2.99     48.41966     0.940     0.703      4.520     137.5308  23.8374        574
 7.27   0.8803    778.0057   1366.4883 -86.73      169.604     0.775     0.499      4.017     137.4841  22.4764        575
 7.28   0.6274    777.1037    475.3150 -22.42     237.7723     0.936     0.673      4.877     137.3596  22.1096        576
 3.59   0.1265    765.5607    390.1766 -44.99     1180.373     1.519     1.510      4.865     137.5464  20.3700        577
 3.85   1.3630    767.0174    138.3184 -58.55     109.5907     1.581     1.437      3.461     137.5464  22.9506        578
 4.90   0.8537    766.4590    928.8651  83.88     174.8802     1.312     1.178      4.105     137.4686  22.4431        579
 5.91   2.2945    768.4127    349.2164  18.78     65.08696     0.727     0.457      3.605     137.5153  23.5163        580
 7.65   0.5840    764.5472    368.3994  45.67     255.9085     1.559     0.724      6.074     137.6086  22.0298        581
 0.00   5.2223    763.8049   1010.7866  46.63     28.58096     0.769     0.561      3.602     137.4374  24.4098        582
 3.50  99.0000    763.3813    565.9352  -2.44    -72.22263     1.143     0.958      2.830     137.5464  99.0000        583
 7.84   1.2105    763.9860    292.7381 -89.17      123.372     0.668     0.440      0.411     137.5153  22.8220        584
 6.29   1.6002    762.4064   1570.6052  -0.13     93.30827     0.920     0.661      2.038     137.4841  23.1252        585
 3.94   0.4873    756.5654   1339.7952 -45.47     306.4836     2.198     1.112      7.018     137.5308  21.8340        586
 8.61   0.8914    759.3100    668.3517 -43.15     167.4212     0.575     0.334      2.674     137.4219  22.4905        587
 6.01   0.6219    760.0000     26.9862   0.00     240.0822     0.841     0.289      3.140     137.4841  22.0991        588
 4.27   0.4810    758.4163    540.7729 -18.74     310.5406     0.717     0.460      2.714     137.5308  21.8197        589
 5.91   0.5830    757.2058    104.3230 -63.55     256.2151     1.181     0.877      4.321     137.5464  22.0285        590
 4.39   0.2994    753.7415    194.2228  73.63      498.921     2.086     1.882      8.329     137.5619  21.3049        591
 8.21   1.7368    753.7567    163.3931 -72.61     86.01362     0.742     0.456      4.035     137.5619  23.2136        592
 4.89   1.1416    751.6927   1078.6486 -58.85     130.7149     1.115     0.897      6.112     137.4063  22.7592        593
 6.07   1.7167    751.9321    431.6724 -86.68     86.92445     1.184     0.958      1.497     137.4063  23.2021        594
 7.54   1.7710    750.2305   1142.0118  -0.50     84.35505     0.700     0.421      3.887     137.5619  23.2347        595
 7.48   0.5444    749.9789     46.0000  90.00     274.2404     0.845     0.289      4.771     137.4841  21.9547        596
 7.00   0.4575    746.9688    444.2968  39.27     326.1998     1.633     1.014      5.519     137.4063  21.7663        597
 5.79   1.1890    746.5140   1108.9441   0.86     125.5345     0.786     0.500      3.418     137.4374  22.8031        598
 6.64   0.4777    743.6657    839.2238  15.78     312.7082     1.718     1.633     10.310     137.5464  21.8122        599
 6.36   0.4656    744.9623    833.1743 -68.58     320.8121     1.207     0.814      5.999     137.5308  21.7844        600
 3.50   0.0004    723.1760    403.1595 -39.64     351638.3     2.747     2.443      5.881     137.5464  14.1848        601
 8.68   0.7122    743.6737     43.6676 -44.73     209.5101     0.574     0.335      1.820     137.4063  22.2470        602
 7.22   0.2556    740.1786    370.5160  56.24     584.3024     1.140     0.951      6.842     137.5153  21.1334        603
 0.00   1.5117    740.1779    917.8958  41.12      98.7713     0.838     0.662      0.000     137.4841  23.0634        604
 6.80  99.0000    740.1210    120.8800  42.33    -163.2021     0.847     0.661      1.850     137.4374  99.0000        605
 4.74  99.0000    738.4702   1271.4121  45.45     -5.84972     1.119     0.836      3.667     137.6086  99.0000        606
 3.61   0.4484    737.1213   1156.6825 -44.41     332.8764     1.365     1.277      4.134     137.4374  21.7443        607
 3.68   0.2490    735.1292    648.1887  42.16     600.1541     1.391     1.315      4.262      137.593  21.1043        608
 8.05   0.6442    732.6804     95.6733 -44.66     231.6906     0.568     0.338      3.214     137.4374  22.1377        609
 6.62   0.5304    729.0966    751.6630  76.28     281.4144     1.488     0.977      6.289     137.4374  21.9266        610
 3.50   0.1654    726.5187   1176.7460 -29.31     902.3888     1.459     1.405      4.302     137.4219  20.6615        611
 4.16  99.0000    727.9194   1542.3876 -15.40    -182.0413     0.990     0.735      3.237     137.5464  99.0000        612
 3.50   0.0025    725.6479    846.8032  -5.97     60442.41     2.131     2.085      5.426      137.593  16.0966        613
 3.77   0.5018    720.4852   1393.5398  14.42     297.4429     1.620     1.247      3.115     137.4374  21.8665        614
 3.54   0.7030    721.3453    260.6553 -42.57     212.4023     0.998     0.873      2.930     137.4997  22.2321        615
 7.98  99.0000    719.7972   1000.4150 -70.14    -102.9068     0.761     0.446      1.819     137.4841  99.0000        616
 5.93   0.8401    745.4609    364.1541 -47.14      177.754     1.012     0.717      5.889     137.4997  22.4255        617
 3.50   0.1537    714.8780    806.8518  27.22     971.2927     1.489     1.456      4.329     137.4374  20.5816        618
 3.50   0.1099    741.8383    554.6828 -39.28     1358.275     1.576     1.489      4.389     137.4997  20.2175        619
 3.50   0.1474    708.0369   1162.3661  81.80      1013.56     1.461     1.441      4.148     137.5775  20.5354        620
 0.00  10.0226    709.4844    193.5308  42.20     14.89037     1.484     0.888    -22.019     137.4219  25.1177        621
 3.80   0.0957    703.1603   1337.6311 -78.22     1560.426     2.434     1.954      6.652     137.5775  20.0669        622
 5.44   0.3354    706.8645    537.0085  10.44     445.5706     1.123     1.113      6.070     137.6086  21.4277        623
 3.50   0.0672    701.9468    950.9861 -44.71      2224.27     1.688     1.595      4.097     137.5775  19.6820        624
 6.64   0.6948    704.9594    610.5181 -87.43     214.9132     0.789     0.499      2.523     137.4997  22.2193        625
 8.19   1.5446    704.9415    603.2988 -87.54     96.59723     0.747     0.682      3.660     137.3907  23.0876        626
 4.96   1.0441    702.1547    632.2872 -60.54     142.9669     0.849     0.595      2.737      137.453  22.6619        627
 3.71   1.4624    700.5091    649.6779  64.06     102.0524     0.910     0.818      3.394     137.4219  23.0279        628
 4.33   0.1878    698.0079    581.0513   7.20     795.6849     2.453     1.406      5.649      137.593  20.7981        629
 7.87   0.6917    697.5863    484.5056 -67.60      215.846     1.136     0.702      6.682     137.4841  22.2146        630
 6.04   1.1646    695.9753   1198.8938  29.17     128.1875     0.962     0.728      4.088     137.4686  22.7804        631
 4.13   0.5034    695.5074    275.3396 -46.94      296.492     0.984     0.850      1.200     137.4374  21.8700        632
 3.81   0.3024    690.8043   1212.2382  28.03     493.8574     1.750     1.452      4.499     137.5153  21.3160        633
 4.02   0.3553    685.6290   1212.3180 -27.28     420.2967     1.488     1.232      3.796     137.5153  21.4911        634
 3.50   0.2534    691.0005    314.4893  82.41     589.2422     1.445     1.329      4.807     137.4841  21.1243        635
 5.61   0.0831    682.1150    470.8224 -63.69     1797.048     4.267     4.075     20.466     137.5153  19.9136        636
 6.10   0.6776    688.5663    666.8992  63.34      220.166     1.116     0.571      2.170     137.3752  22.1931        637
 6.65  10.8595    688.9680    367.7498 -88.30     13.75681     0.677     0.433      3.838     137.5619  25.2037        638
 3.50   0.0767    684.5452    642.6832  84.22     1945.371     1.778     1.620      5.205     137.4063  19.8275        639
 3.50   0.4108    686.5310    129.1955 -68.25       363.74     1.221     1.193      4.435     137.5775  21.6480        640
 0.00   0.8641    686.4261   1043.6195  33.78     172.8361     0.997     0.677      5.980     137.5153  22.4559        641
 4.51   0.0907    680.1978    541.8158 -73.28     1645.533     3.023     2.168     10.172     137.4686  20.0092        642
 6.19   0.3534    684.2236    399.4459 -75.68     422.7612     1.372     1.331      6.339     137.5619  21.4848        643
 6.15   0.6247    683.1295   1564.1471 -47.38     238.9388     0.824     0.676      3.840      137.453  22.1043        644
 6.09   0.5837    681.9587    388.5227 -56.06     255.8057     1.161     0.749      6.963     137.4841  22.0302        645
 5.89   0.8767    676.2930    199.6582 -13.03     170.2218     0.983     0.843      3.886     137.4219  22.4725        646
 5.18  99.0000    675.0676   1162.9658 -15.21     -33.5964     1.040     0.827      3.932     137.5308  99.0000        647
 5.64  99.0000    672.8073    424.1615 -46.19    -78.59133     0.753     0.563      4.108     137.5308  99.0000        648
 4.90   0.9072    671.9019    229.7000  15.68     164.4594     1.291     1.121      5.214     137.3752  22.5099        649
 0.00  99.0000    672.3091    118.6594  43.50    -186.0295     0.570     0.337      0.000     137.4374  99.0000        650
 5.31   0.3043    668.1707   1219.8903 -74.91     490.6724     1.632     1.550      6.484     137.4686  21.3230        651
 7.27   0.4444    668.7492    526.2476  47.51     336.1815     1.168     1.029      7.007     137.5619  21.7336        652
 3.95   0.6643    665.7874   1178.6869 -36.86     224.8254     1.091     1.053      3.993     137.5308  22.1704        653
 4.48   1.3426    665.4362   1068.4202  47.64     111.2676     1.001     0.853      3.394     137.5619  22.9341        654
 7.99   3.6819    665.6771    990.3316  44.60     40.52384     0.572     0.336      1.083     137.3907  24.0307        655
 7.19   0.6256    665.4438    413.6940   9.14     238.4931     1.013     0.476      5.507     137.3907  22.1063        656
 5.30   1.6591    661.9373     80.7691   1.97      90.0116     0.934     0.741      5.606     137.5153  23.1643        657
 3.50   0.0025    647.4385   1462.9248 -65.24     59652.08     2.071     1.993      5.201     137.4997  16.1109        658
 5.26   0.4501   1503.3763   1310.4441  -9.38     331.8844     1.274     0.980      3.119     137.5619  21.7475        659
 3.84   0.3172    653.7503    869.2192  83.14     470.7958     1.376     1.339      3.410     137.5308  21.3679        660
 0.00   2.9054    655.7977    654.6185  71.74     51.38911     0.757     0.446   -190.363     137.4841  23.7728        661
 6.21   0.7895    649.6399   1159.4390 -11.95     189.2146     1.493     0.945      5.928     137.5619  22.3576        662
 7.20   0.3508    646.2773   1153.1174  -2.85     425.4517     1.112     0.864      6.672     137.4374  21.4779        663
 4.28   0.2321    644.7308    651.3647 -37.30     643.5204     1.287     1.267      4.705     137.5308  21.0286        664
 3.50   0.0158    638.8285    535.1636  36.97     9446.873     1.904     1.839      5.183     137.5308  18.1118        665
 8.18   0.5295    641.7880   1305.8011  44.68     282.0206     0.763     0.564      4.578     137.4997  21.9243        666
 3.50   0.5068    640.2966    274.9314 -31.12     294.5481     1.427     1.140      3.318      137.453  21.8771        667
 7.59   0.4025    637.2565    551.7100  87.43     370.7895     1.514     0.901      6.530     137.4374  21.6272        668
 6.18   2.6513    638.3812    390.6563 -43.96     56.33361     1.033     0.874      6.196     137.5308  23.6731        669
 0.00  99.0000    636.3994    646.2070  18.43    -30.80502     0.739     0.454    -12.343      137.453  99.0000        670
 3.50   0.2531    629.7348    804.6411  50.79     590.1515     1.353     1.324      4.063     137.5153  21.1226        671
 3.88   4.2789    630.4073    854.0191 -14.46     34.88604     1.195     0.936      4.847      137.453  24.1934        672
 0.00  99.0000    631.4944     67.4591 -48.00    -205.7897     0.507     0.491      0.000     137.4374  99.0000        673
 7.77  99.0000    630.3377    255.6992  46.88    -36.12231     0.565     0.339      3.388     137.4374  99.0000        674
 3.50   0.6040    628.3184    940.7408 -71.28     247.1258     0.947     0.834      2.863      137.453  22.0677        675
 8.53  99.0000    629.7096    649.3574  41.76    -186.1694     0.568     0.337      1.763      137.453  99.0000        676
 7.08   1.3806    627.1211   1122.8698  45.90      108.088     0.853     0.682      5.119     137.4063  22.9656        677
 4.33  99.0000    625.8840    131.8179 -48.97     -33.7803     0.823     0.662      1.957     137.5308  99.0000        678
 3.50   0.1723    622.6758   1580.3481  46.85     866.2605     1.435     1.417      4.112     137.4219  20.7059        679
 7.25   0.4210    625.4108   1286.2435  19.05     354.7554     0.733     0.455      4.395     137.5308  21.6752        680
 5.83   0.8420    623.7851    342.8228  -5.68      177.329     1.461     0.945      6.338     137.4841  22.4280        681
 0.00  99.0000    622.8485   1077.8372  45.92    -173.4827     0.748     0.573    -20.498     137.5619  99.0000        682
 4.63   0.5678    621.5059   1055.5011  44.80     262.7196     0.502     0.498      2.300     137.3596  22.0013        683
 4.67   0.3395    617.2881   1150.4926 -12.46     439.5275     2.362     1.579      7.599     137.4063  21.4425        684
 6.22   1.4650    618.4885     93.1211 -24.60     101.8711     1.294     0.927      3.927     137.4219  23.0299        685
 4.05   1.4787    615.0881   1233.5200  74.74     100.9268     1.151     0.944      1.554     137.4219  23.0400        686
 0.00  99.0000    615.5864    117.1061 -73.68    -65.99636     0.994     0.741      0.000     137.4841  99.0000        687
 8.63   0.7551    614.8093    530.1701 -46.57     197.8091     0.771     0.569      4.627     137.5464  22.3094        688
 5.50   0.9909    612.7856   1366.5790  42.32     150.6841     1.397     1.267      8.384     137.4841  22.6048        689
 0.00   3.3732    614.1479    288.1101 -44.11      44.2575     0.828     0.669      0.000     137.4686  23.9350        690
 4.47   0.8531    610.7028    994.0850  16.87     174.8621     1.180     1.032      2.112     137.3596  22.4433        691
 8.03   0.5262    608.1297   1334.3069 -73.57     283.6133     1.737     1.107     10.422     137.4219  21.9182        692
 5.67   2.1865    610.1726    961.7830  47.33     68.30952     0.787     0.669      4.724     137.5308  23.4638        693
 3.95   0.6405    608.5198    943.9429  57.36        233.1     1.223     1.089      5.854     137.4686  22.1311        694
 4.50  14.8843   1496.0413   1123.2916  87.22     10.02443     0.731     0.665      3.120     137.3907  25.5473        695
 3.50   0.1611    604.5872    584.8547 -69.49     927.4228     1.505     1.440      4.296     137.5775  20.6318        696
 0.00  99.0000   1556.2631    736.6564 -11.06     -58.2758     0.879     0.737      0.000      137.453  99.0000        697
 7.10   1.1454    603.4007    511.8732 -31.13     130.4744     1.305     0.924      0.129     137.6086  22.7612        698
 6.74   4.5861    601.5868    763.3082  64.33     32.55655     0.921     0.816      2.922     137.4841  24.2684        699
 6.37   3.1451    600.0132   1424.8447  63.01     47.48883     1.215     1.120      4.112     137.5308  23.8585        700
 5.70   0.5899    598.4013    666.6710 -64.77     253.2879     1.166     0.945      5.725     137.5775  22.0410        701
 7.09  99.0000    597.4948    356.0611  -1.76    -6.537601     0.795     0.500      1.366      137.453  99.0000        702
 0.00 560.2805    595.8260   1124.0168 -87.63     0.266578     0.916     0.758      5.497     137.5308  29.4854        703
 4.94   2.4436   1590.3219    565.2692  12.12     61.07506     1.092     1.010      2.129     137.4219  23.5853        704
 8.05   0.3004    591.9699   1355.7440  58.04     497.2719     0.930     0.831      5.579     137.5619  21.3085        705
 3.78   0.5538    892.9714   1424.8131 -15.64     269.7231     1.358     1.281      4.628     137.5464  21.9727        706
 4.01   0.8167   1549.9255   1220.6448 -26.79     182.7788     1.351     1.215      4.204      137.453  22.3952        707
 8.41   1.3743   1585.4021   1081.1864  19.34     108.6457     0.746     0.449      4.204     137.4841  22.9600        708
 3.50   0.7840    898.5993    378.3526 -44.08     190.6132     0.989     0.830      2.169     137.6086  22.3496        709
 3.50   1.2313   1535.1337   1427.4486 -49.78     121.2587     2.325     1.153     13.948     137.4841  22.8407        710
 5.30   0.5760   1584.9180   1068.0917 -36.80     259.1748     1.155     1.083      3.871     137.4686  22.0160        711
 5.76  99.0000   1585.3984    639.8409  34.31   -0.3692401     1.001     0.908      3.550     137.5464  99.0000        712
 0.00   1.8797   1588.2570   1334.4186  70.43     79.45776     0.715     0.458     -0.358     137.5308  23.2997        713
 3.50   0.1619   1583.9224   1107.3608  85.15      922.426     1.493     1.454      4.202     137.4841  20.6377        714
 6.05  99.0000   1534.5165   1151.1301 -54.19    -57.71689     0.909     0.671      5.198     137.4063  99.0000        715
 5.25   2.4384    606.5264   1009.5512 -58.06     61.21005     0.881     0.871      5.156     137.4374  23.5829        716
 4.63   0.4459    896.2236    985.9687 -74.46      334.856     1.422     1.147      4.733     137.4997  21.7379        717
 7.42   2.8769    894.2227   1570.2350  62.61     51.91063     1.045     0.889      4.363     137.5153  23.7619        718
 7.95   1.4999   1581.5309   1471.4690 -45.01     99.50073     0.509     0.488      2.521     137.4219  23.0554        719
 3.50   5.8919   1574.2419   1489.8348  51.42     25.35845     1.093     1.041      3.155     137.5775  24.5397        720
 9.40   0.7142   1582.6683    771.3503  44.27     209.0188     0.584     0.329      3.503     137.4686  22.2495        721
 4.65   2.3033   1570.3956   1337.0565  70.83     64.88874     0.978     0.736      2.666     137.6241  23.5196        722
 3.50   0.0015    879.3813   1591.1503 -63.64       101394     2.191     2.053      5.328     137.5308  15.5350        723
 7.15  99.0000    898.3307    972.6839  45.71    -169.6716     0.569     0.338      2.717     137.4219  99.0000        724
 5.12   1.6332   1552.8965   1370.1503  49.63     91.32773     0.808     0.673      1.187      137.344  23.1485        725
 3.57   0.3064   1531.6038    414.0146  13.26     487.2795     1.865     1.611      5.954     137.4686  21.3306        726
 0.00  99.0000   1553.0144   1231.5068   0.45    -189.7662     1.022     0.780      6.130     137.4841  99.0000        727
 3.50   0.8469   1580.4269   1412.8467  53.08     176.4223     1.495     1.203      3.138     137.5775  22.4336        728
 3.50   0.0028   1562.5905    302.4526 -45.16     53196.97     2.030     1.976      5.217      137.593  16.2353        729
 5.39   1.2284   1563.1949   1056.6471  22.57     121.6577     0.725     0.638      0.872     137.6086  22.8372        730
 5.78   0.8480    897.4784    727.9808  88.32      176.177     0.806     0.694      3.297     137.5619  22.4351        731
 4.47   1.9257   1534.6099    918.2558 -51.05     77.59522     0.951     0.919      5.708      137.593  23.3254        732
 3.50   0.2033   1560.2660    859.8150  82.75     735.0596     1.435     1.389      3.811     137.5775  20.8842        733
 3.50   0.0773   1565.5377     20.2199  79.18     1932.725     1.596     1.567      4.857     137.5464  19.8346        734
 3.50   0.5117   1537.6013    261.7689 -29.93     291.7953     1.070     0.936      3.513     137.4841  21.8873        735
 3.50   0.0028   1557.0262    485.9517 -46.95     52617.64     2.037     1.979      5.210      137.593  16.2472        736
 3.50   0.0097   1551.5463    680.5699 -24.21     15435.36     5.083     4.253     11.628     137.5619  17.5787        737
 3.54  99.0000   1561.8950   1564.7633  89.78      -48.289     1.147     1.037      1.717     137.3907  99.0000        738
 4.66   0.7678   1537.8602    504.2532 -86.64     194.4353     1.410     1.249      5.146     137.4686  22.3281        739
 3.51   0.1069   1564.7686    782.9649 -73.89     1397.812     2.284     1.696      5.925     137.5308  20.1864        740
 3.50   0.1030   1569.3835     90.9229 -37.37     1450.211     1.574     1.468      4.340     137.5619  20.1464        741
 0.00  99.0000   1550.4473    350.6759  67.28     -126.837     0.939     0.820      0.000      137.453  99.0000        742
 5.23   1.8280   1551.0425    131.5157  28.07     81.67905     1.014     0.663      4.759     137.4841  23.2697        743
 4.07   0.6948   1561.5024    384.5472 -84.62     214.7238     2.088     1.130      3.397     137.3752  22.2203        744
 6.59   0.3669   1533.5042    973.8771 -48.31      406.759     1.676     1.109      6.650     137.4063  21.5267        745
 4.93  99.0000   1540.1309    328.2009 -45.18    -39.39059     0.803     0.678      0.488     137.5775  99.0000        746
 0.00  99.0000   1551.0103   1512.1785   1.02    -229.0921     0.887     0.751      5.320     137.4841  99.0000        747
 0.00  99.0000   1445.3170    729.8317 -74.10    -310.0663     1.171     1.106      7.024     137.4997  99.0000        748
 0.00  99.0000   1551.6907    780.9668 -27.82    -66.93867     0.905     0.212      0.000     137.4686  99.0000        749
 3.73   0.2704   1545.0369    861.9048  43.95      551.841     1.941     1.698      6.208     137.3907  21.1955        750
 5.41   1.2609   1527.4613    731.5827  51.89     118.4305     1.479     1.129      3.445     137.4997  22.8663        751
 3.67   0.3955   1514.5349   1545.8276  74.42     377.6154     1.792     1.351      3.895     137.5153  21.6074        752
 3.50   0.0765   1541.5630    652.9582  87.86     1953.079     1.652     1.610      4.618      137.593  19.8232        753
 3.50   0.0489   1540.7096    133.3076 -13.89     3049.932     1.604     1.591      4.686     137.3907  19.3393        754
 6.37  99.0000   1535.2697   1059.9784 -12.23    -177.0699     0.716     0.693      3.760     137.5775  99.0000        755
 5.66   2.7352   1528.0956    548.5684 -26.74     54.56237     1.123     0.571      3.865     137.4219  23.7078        756
 0.00  99.0000   1529.3197    894.3311 -44.46    -49.27973     0.570     0.337      0.000     137.4374  99.0000        757
 5.31   0.6704   1521.6635     12.5558  12.99     222.7633     1.218     1.101      5.570     137.5153  22.1804        758
 4.67   0.4607   1518.9526   1099.4435 -74.47     324.2432     1.794     1.405      3.871     137.5464  21.7728        759
 4.71   0.6300    899.0773    449.6739 -77.58     236.9248     0.724     0.652      2.269      137.453  22.1135        760
 3.70   0.3570    911.2904    999.7241  36.21      418.045     1.334     1.228      3.865     137.4219  21.4969        761
 3.66   0.7919   1518.1007     83.3555  12.43     188.4035     1.538     1.382      3.966     137.3752  22.3623        762
 3.50   0.0053   1506.1277    267.6140 -51.55     28269.68     1.922     1.907      5.059     137.6241  16.9217        763
 3.80   3.8457   1522.7395    377.1094  66.14     38.81624     1.847     1.136      4.206      137.453  24.0775        764
 3.75   0.2928   1513.5560    481.9802 -17.17     510.0781     1.254     1.196      3.988     137.5464  21.2809        765
 4.71   0.9901   1526.1038    877.5256 -48.92     150.7499     1.022     0.926      6.131     137.4374  22.6044        766
 4.38   2.9921    913.5267   1117.9211  75.00     49.88911     1.400     1.193      4.938      137.453  23.8050        767
 5.20   3.3205   1501.4576   1412.1002  85.26     44.92016     1.231     0.826      4.477      137.344  23.9189        768
 0.00  99.0000   1524.4738   1214.5239  44.72    -106.2947     0.505     0.493      0.000     137.4374  99.0000        769
 0.00  99.0000   1508.4960   1207.4696 -54.85    -251.1327     0.501     0.498      0.000      137.453  99.0000        770
 0.00  99.0000   1502.9536   1095.0156 -33.17       -85.98     1.142     1.118     -4.708     137.5308  99.0000        771
 5.18  99.0000    903.1583   1257.1417  45.73    -54.94106     0.757     0.569      3.597     137.4997  99.0000        772
 3.50   0.0214   1513.8727    390.9581   6.67     6966.447     1.740     1.705      4.864     137.4841  18.4425        773
 5.88  99.0000   1511.0653      3.5024   2.71    -6.069288     0.809     0.691      2.618     118.9254  99.0000        774
 5.33   0.9358    902.6474    120.3405 -49.71     159.5683     0.985     0.844      4.622     137.4997  22.5426        775
 5.38   0.6136    903.2188    733.5338   9.87     243.4263     0.956     0.912      1.961     137.5308  22.0841        776
 7.96  99.0000   1491.4911   1094.4879 -45.23    -103.1123     0.504     0.496      1.987     137.3907  99.0000        777
 4.00   0.1516    895.2104    537.0101   8.34     984.4739     2.372     1.976      5.826      137.453  20.5670        778
 0.00  48.3845   1500.4423    678.8016  86.18     3.087607     0.987     0.721    -21.060     137.5619  26.8259        779
 3.61   0.3606    903.5105   1313.7792  87.60     414.0249     1.782     1.332      4.463     137.4841  21.5074        780
 3.50   0.0261    899.4466    301.0835  83.14     5728.228     1.728     1.724      4.884     137.4686  18.6549        781
 4.96   1.6457   1496.9391   1231.3479 -12.82     90.71479     0.957     0.752      3.870     137.4686  23.1558        782
 5.26   0.6524    924.5437    309.0309 -61.24     229.0058     1.001     0.657      1.257     137.5619  22.1504        783
 3.50   0.2844   1503.1013    721.7957  86.03     524.9839     1.452     1.342      4.494     137.4841  21.2496        784
 3.50   0.0481   1434.2688    223.0007 -48.09     3109.437     1.624     1.577      4.504     137.5775  19.3183        785
 7.34   1.2118   1497.6967    255.7074  44.82      123.113     1.166     0.566      5.956     137.3752  22.8242        786
 4.52   0.6774   1495.4760    928.6413 -51.52     220.4034     1.113     0.767      2.749     137.4841  22.1920        787
 5.13   0.5683    921.1234   1197.8351 -64.29     262.7356     2.528     1.250     10.750     137.4841  22.0012        788
 6.22   0.8140   1493.3517    870.5338  30.87     183.4321     0.959     0.837      4.929     137.4841  22.3913        789
 3.50   0.4016   1497.6676    842.9128 -81.48      371.552     1.147     1.128      3.778     137.4063  21.6250        790
 3.50   0.2783   1481.3477    573.7131 -42.49     536.2497     2.404     1.552      5.128     137.4219  21.2266        791
 5.33   0.2433    915.8659    251.4963  59.12     613.7197     2.129     1.187      7.625     137.4686  21.0801        792
 6.97   0.7470    908.0131     87.5300 -89.82     200.0525     0.813     0.499      3.283     137.6086  22.2971        793
 4.75  98.7543   1496.7322    671.9519  85.85     1.511912     0.874     0.746      4.976     137.4841  27.6012        794
 4.43   0.3648   1487.1511     76.3216  17.26     409.2029     1.383     1.326      5.529     137.4686  21.5202        795
 5.76  99.0000   1477.4252   1022.4833  49.20    -38.08879     1.378     0.816      3.284     137.4997  99.0000        796
 3.50   0.0002    880.5359    182.0380 -39.55     913701.9     3.890     3.526      6.700     137.5153  13.1480        797
 5.35  99.0000    914.5897    124.3067 -45.79    -55.58295     0.994     0.863      1.224     137.4686  99.0000        798
 4.68   1.1535    907.7704      3.5518 -14.93     112.2909     1.357     1.084      5.621     119.2667  22.9241        799
 3.50   0.2032    911.7537    836.9884  52.13     734.9241     1.388     1.333      4.119     137.5308  20.8844        800
 4.08   0.6077   1475.9598    197.0039  11.29     245.7602     1.333     1.091      4.824     137.5153  22.0737        801
 0.00  99.0000   1482.4895    766.5071  44.88    -106.9463     0.507     0.493      0.000     137.4063  99.0000        802
 0.00  99.0000   1465.1213    116.8933  45.40    -76.14068     0.843     0.669      0.000     137.4219  99.0000        803
 6.43  99.0000   1470.9758    428.5414 -89.65    -46.90251     0.789     0.498      1.588     137.5775  99.0000        804
 4.51  17.4161    923.9541    932.8009  27.69     8.579776     0.950     0.752      2.667      137.593  25.7163        805
 4.08   3.0136   1419.4254    427.5980 -41.32     49.55042     1.140     0.835      1.826     137.4997  23.8124        806
 4.39   1.4716   1456.9536    610.4015  86.66     101.5402     1.105     0.934      3.392      137.593  23.0334        807
 3.50   0.0012   1433.4305   1089.0942 -40.48     127779.6     2.292     2.146      5.278      137.453  15.2838        808
 5.43   1.5004    951.2455   1301.9865 -54.84      99.5453     0.809     0.494      0.924     137.5308  23.0549        809
 6.34   2.0016   1474.8782   1569.2239   3.97     74.61246     1.140     0.873      2.671     137.5153  23.3680        810
 0.00   4.5489    916.4091   1111.4955 -57.10     32.81891     1.053     0.788      6.317     137.4686  24.2597        811
 7.42   2.9580   1464.1953    446.6032 -70.88     50.47059     0.760     0.446      1.014     137.4686  23.7924        812
 4.49   0.1730   1474.1257    996.7769 -15.84      863.399     2.790     1.382      6.771     137.5308  20.7095        813
 3.50  99.0000    931.3125   1116.4862  89.39    -195.3499     1.141     1.001      1.526     137.4063  99.0000        814
 0.00   1.4991   1466.7694   1126.9901  39.83     99.65604     1.277     0.977      5.686     137.5619  23.0537        815
 3.50   1.4940   1452.4904    389.9434  -2.31     99.90726     1.051     0.921      3.301     137.4374  23.0510        816
 4.93  99.0000    925.0795    664.7285  57.87     -23.2327     1.138     1.002      4.732     137.4374  99.0000        817
 0.00  99.0000   1438.2158    632.9548   1.73    -36.00356     0.701     0.411      4.206     137.5153  99.0000        818
 0.00  99.0000   1457.4883   1112.3357  89.98    -144.9769     0.914     0.472      0.000      137.453  99.0000        819
 0.00   2.7924   1461.0214   1381.0143 -45.02      53.4694     0.918     0.528      5.510     137.4841  23.7297        820
 5.78   1.1182    918.8272   1343.1749  53.62     133.5753     0.900     0.836      2.540     137.5308  22.7357        821
 3.51   0.1581    927.3394   1321.0953 -59.95     944.3194     1.559     1.441      4.602      137.453  20.6122        822
 4.20  99.0000    924.9520     44.9536 -10.42    -110.4529     1.119     1.099      4.274     137.5619  99.0000        823
 8.94  99.0000    927.6917     66.6917 -45.00    -52.96051     0.555     0.344      3.332     137.3596  99.0000        824
 4.90   0.8114   1453.9032    921.1022  44.41     183.8855     0.835     0.654      3.752     137.3907  22.3886        825
 3.50   0.0878    938.1570   1065.5884  67.12      1701.59     1.806     1.472      4.623     137.5308  19.9729        826
 0.00   1.6495   1454.9847   1143.2863  86.92     90.52739     0.728     0.664      0.000     137.4997  23.1580        827
 7.09   1.1703   1450.5183   1163.3622 -70.10     127.5814     1.601     0.855      5.169     137.4841  22.7855        828
 6.22   1.8364   1453.9756    660.0073 -46.05     81.33405     0.917     0.526     -5.086     137.5308  23.2743        829
 3.78   0.3845   1437.7621   1269.6532 -69.57     388.3919     1.301     1.242      3.612     137.5153  21.5768        830
 5.02   0.6787   1436.8296    995.2936  59.87     219.9609     0.859     0.602      3.041     137.4686  22.1941        831
 3.50   0.0110    928.7850   1176.9730 -79.76     13581.04     1.828     1.810      4.954     137.5308  17.7177        832
 6.63  99.0000   1453.6389    165.0556   2.31    -33.03981     0.752     0.645      3.613     137.5308  99.0000        833
 0.00  99.0000   1444.9612    176.9987 -89.86    -174.1322     0.618     0.602    -13.141     137.5153  99.0000        834
 0.00   0.9234   1396.0166   1101.5753  69.32     161.6974     1.000     0.935     -0.693     137.4841  22.5282        835
 5.54   1.4741   1450.6127   1223.6907 -83.02     101.2955     1.350     0.910      4.414     137.4997  23.0360        836
 3.50   0.0674   1438.7900    617.5021 -10.61     2213.545     1.554     1.496      4.191      137.453  19.6873        837
 3.50   0.9431   1436.2102    385.9818 -85.63     158.2935     0.878     0.747      2.823     137.4686  22.5513        838
 0.00   1.6618   1437.7728    645.7034   4.08     89.81908     1.556     1.076    -10.018     137.4374  23.1666        839
 6.89   1.0560   1431.2853   1279.1400 -46.23     141.3377     1.443     0.691      6.877     137.4374  22.6744        840
 3.50   0.4497   1435.2380   1345.9729 -43.47     332.1634     1.190     1.126      3.758     137.5464  21.7466        841
 4.42   0.1592    937.1419    514.7639  65.30     938.2148     2.563     1.817      8.600     137.5308  20.6192        842
 3.50   0.0093   1418.3993   1124.8358 -72.14     16111.54     2.094     1.934      5.128     137.4686  17.5322        843
 3.52   0.0995   1414.4308   1385.1621  81.72     1501.984     1.512     1.467      4.317     137.5464  20.1083        844
 0.00  99.0000   1437.4760    178.5230  44.91     -173.964     0.508     0.491      0.000      137.453  99.0000        845
 0.00  99.0000   1436.0164   1370.9790 -22.64    -108.9386     1.262     0.533      7.574     137.4997  99.0000        846
 3.50   0.5063   1431.1683    339.0815  22.54     294.9268     2.001     1.335      4.982     137.4997  21.8757        847
 6.25   2.7968   1417.6298    105.0640 -13.65     53.39678     1.170     0.888      3.016     137.5153  23.7312        848
 7.50   1.3445   1402.1719   1343.8857 -79.30     111.0775     1.175     0.726      3.124     137.5153  22.9359        849
 7.77  99.0000   1382.3380   1466.3071 -46.51    -149.6373     0.568     0.338      2.849      137.453  99.0000        850
 7.23   0.7264    937.1316    218.6918  61.31     205.4606     0.852     0.602      4.550     137.4219  22.2682        851
 7.84   0.7849    945.6110   1164.8018  18.24      190.205     0.734     0.453      2.795     137.4686  22.3519        852
 7.34  99.0000   1444.4667   1513.5170  38.84    -78.67747     0.501     0.497      3.007     137.4063  99.0000        853
 0.00   0.9841   1403.3044    386.6452  42.73     151.6285     0.573     0.335      0.000     137.4063  22.5980        854
 4.48  99.0000    946.8138     42.5385  68.24    -34.13689     1.260     0.898      1.786     137.5153  99.0000        855
 7.25  99.0000   1383.4504      6.5013  15.82    -26.53253     0.500     0.497      2.185     133.7608  99.0000        856
 0.00  99.0000   1425.3165    767.6627  44.03    -258.1252     0.572     0.336      0.000      137.453  99.0000        857
 4.27   1.1508    951.0862     59.9075  68.16     129.6583     1.466     1.302      3.311     137.3907  22.7680        858
 0.00  99.0000   1448.3176     86.3835 -61.28    -107.5165     1.088     0.925   -499.395     137.5308  99.0000        859
 0.00   0.7817   1422.7021   1595.7240  26.48     178.5958     1.125     0.858      0.000     128.5568  22.4203        860
 3.50   1.0330   1410.6628    365.5913 -64.51     144.6742     2.646     0.785      3.598     137.6086  22.6490        861
 3.50   0.6033    940.5485    724.2278  68.31     247.6132     1.384     1.261      2.013     137.5619  22.0656        862
 4.66   0.3574    946.4003    131.8044 -61.85     417.8015     1.237     1.086      5.311     137.4997  21.4976        863
 3.50   0.2298   1410.1222    348.3161  54.07     649.4489     1.941     1.527      5.135     137.4374  21.0186        864
 5.69   5.7963   1401.0663     60.8594   1.03     25.75047     0.931     0.752      4.429     137.4374  24.5230        865
 3.55   0.6195   1405.3019    328.1909 -46.18     240.9647     1.293     1.262      4.258      137.453  22.0951        866
 5.13   1.0198   1391.5999   1532.8623 -65.74     146.5398     1.588     1.244      5.681     137.6086  22.6351        867
 3.50   0.0741   1407.1206    306.5770 -33.56     2015.393     1.560     1.485      4.555     137.5153  19.7891        868
 3.50   0.3038    946.7162    443.5614  -9.61     491.5854     1.375     1.212      4.508     137.4997  21.3210        869
 3.96   0.3115   1399.6926   1029.9628  26.55     479.0905     1.769     1.525      2.777     137.4219  21.3490        870
 3.50   0.0002   1365.6366   1158.5651 -62.65     703078.5     2.839     2.659      5.576     137.6086  13.4325        871
 3.69   0.7184   1345.9950    192.7671  29.32     207.9214     1.103     1.074      3.558     137.5464  22.2553        872
 3.50   0.0193   1371.5316   1017.4492 -35.65     7716.993     1.954     1.801      4.926     137.4841  18.3314        873
 7.27   0.8094   1338.0942   1478.8373  -7.55     184.3684     1.115     0.731     -6.236     137.4063  22.3858        874
 4.79   4.4727   1402.8650   1361.7777  57.55     33.39684     1.160     1.095      2.354     137.5464  24.2407        875
 4.42   0.0245   1358.5610   1133.8137  78.51     6089.425    10.078     6.974     30.255     137.5619  18.5886        876
 3.50   0.0021   1392.3275    112.7008 -55.63     71038.44     2.093     2.022      5.394     137.3907  15.9213        877
 0.00  99.0000   1386.4847    675.8112 -89.61    -179.8428     0.947     0.739    -72.165     137.5153  99.0000        878
 3.63   0.6833    954.3857   1027.8672  77.49     218.6887     0.999     0.865      3.154      137.593  22.2004        879
 4.42   0.7540    949.4932    825.2755 -49.53     197.9183     1.153     1.063      4.830     137.4219  22.3088        880
 4.43   0.4257    948.6334    265.9600  45.46     350.9447     1.081     1.058      4.562     137.5619  21.6869        881
 3.50   0.0224   1387.8743   1427.1118 -66.09     6647.498     1.715     1.699      4.757     137.4063  18.4934        882
 3.50   0.1609    949.6575    652.6721  87.88     927.6967     2.358     1.627      6.463      137.453  20.6315        883
 3.50   0.0900   1391.2926   1037.2574 -48.57     1658.792     1.538     1.515      4.140     137.4219  20.0005        884
 6.85   0.4796   1388.2128   1020.1625  45.10     311.4817     0.761     0.561      4.566     137.5619  21.8164        885
 3.50   0.0614   1389.3931    711.6712  73.77     2434.979     1.655     1.561      4.723     137.5775  19.5838        886
 0.00   6.5703    952.4099   1502.9034  80.21     22.72193     0.973     0.864      0.000     137.4686  24.6589        887
 4.06   0.7146   1378.0964    317.4749 -20.48     208.8812     1.380     1.187      3.921     137.4374  22.2502        888
 4.89   0.3848   1384.7843   1272.4896  27.51     388.1449     1.737     1.438      5.278     137.5308  21.5775        889
 5.33   0.6350   1381.5190   1208.5082 -71.58     235.1131     0.942     0.423      2.291     137.4686  22.1218        890
 6.35   6.2571   1388.0505   1100.8663  66.26     23.85945     1.191     0.950      2.490     137.4686  24.6058        891
 4.03   0.7373   1387.8608    805.0665   3.84     202.4716     1.251     1.212      2.938      137.453  22.2841        892
 0.00  99.0000   1381.8851   1047.6293  15.10    -123.1446     1.066     0.735    -10.172     137.5153  99.0000        893
 5.80  99.0000    958.5264    891.5950  -8.00     -140.957     0.900     0.882      0.797     137.5775  99.0000        894
 4.53   1.2549   1387.6259   1583.8268 -18.33     119.0043     1.142     0.921      4.219     137.5153  22.8611        895
 3.97   0.8227   1351.1232    150.2676  81.72     181.3529     2.612     1.805      4.196     137.3907  22.4037        896
 0.00  99.0000   1345.6661   1597.6758 -45.44    -132.8694     0.574     0.335      0.000     117.7501  99.0000        897
 7.61   0.6735   1400.7266     89.6284 -17.15     221.7525     0.975     0.576      3.915     137.5153  22.1853        898
 0.00   4.5468   1384.6487   1383.3220 -10.61     32.82659     1.459     0.862     -5.949     137.4374  24.2594        899
 6.14   0.7192   1252.5337   1087.0894  82.22     207.5462     1.183     0.719      6.166      137.453  22.2572        900
 0.00  99.0000   1367.9484   1068.1727  47.52    -69.01881     0.822     0.659      3.315     137.5619  99.0000        901
 0.00  99.0000   1374.3414   1482.3240 -45.76    -27.53869     0.577     0.334      0.000     137.4686  99.0000        902
 0.00  99.0000   1370.6714   1405.6732 -45.08    -329.0019     0.572     0.336      0.000     137.3907  99.0000        903
 0.00  99.0000   1307.4597    793.0132  -2.62    -52.38428     0.777     0.498     -1.010     137.5153  99.0000        904
 3.50   0.0541   1306.4805    668.0416 -51.74     2757.496     1.975     1.659      5.193     137.4841  19.4487        905
 4.88   0.8137   1369.9504    705.0200  41.74     183.5463     0.784     0.761      1.807     137.5308  22.3906        906
 3.50   0.0034   1164.2915   1298.2329 -58.32     44439.64     2.016     1.959      5.264      137.453  16.4306        907
 5.30   0.5109   1369.7080   1213.9191 -58.33      292.221     1.164     1.026      5.566     137.4686  21.8857        908
 0.00   9.3442   1359.7026   1242.0892 -73.88     15.96416     0.961     0.739      0.000     137.3596  25.0421        909
 3.50   1.6317   1351.9923    965.6971 -86.86     91.51456     0.730     0.674      4.193     137.4997  23.1463        910
 5.92   0.3443    962.9713    422.4237   3.04     433.8671     1.054     0.774      4.970     137.5464  21.4566        911
 3.51   0.2257   1303.7908    891.3155   0.35      661.814     1.375     1.353      3.631     137.5153  20.9982        912
 5.58   0.6790   1361.8287    525.1572 -86.02      220.024     1.645     0.839      5.076     137.5619  22.1938        913
 0.00   4.7433    963.4986   1212.4991 -44.99     31.45249     0.502     0.498      0.000     137.3752  24.3059        914
 3.95   0.5539   1367.1953    147.8331  59.05     269.6851     1.154     1.059      4.144     137.5464  21.9729        915
 0.00  99.0000   1305.5096    506.4796 -54.60    -162.3603     0.500     0.499      0.000     137.4219  99.0000        916
 3.70  99.0000   1364.5948    361.1649 -19.78    -155.2785     0.730     0.451      1.812     137.5308  99.0000        917
 6.39   0.3590    973.0931    546.8149  37.55     416.0023     1.167     1.036      6.711     137.4997  21.5023        918
 8.49   1.5972    976.3323   1195.6643  44.85      93.4282     0.578     0.333      3.068     137.4063  23.1238        919
 0.00   2.4114   1361.6340    389.4590 -16.71     61.93779     1.496     0.896      8.976     137.5308  23.5701        920
 7.21   0.4040   1301.8860    937.3760 -88.23     369.6163     1.574     0.867      6.261     137.4997  21.6306        921
 4.63   1.2263   1305.6504    572.7710 -17.13     121.8193     1.202     0.922      4.652     137.5619  22.8357        922
 6.52   0.3945   1361.7830   1110.2821  43.99     378.6767     1.270     0.935      6.442     137.5464  21.6043        923
 3.69  99.0000    975.5131     70.4607 -18.62    -186.1178     0.916     0.871      1.408     137.4374  99.0000        924
 5.73   1.0772   1342.2946    988.5098 -16.47     138.5015     1.324     0.654      2.991     137.3752  22.6964        925
 3.50   0.0056   1318.9818    658.3548  17.66     26818.93     1.922     1.907      5.187     137.5464  16.9789        926
 4.51  99.0000   1351.7064    473.9774 -72.32    -30.80344     0.988     0.743      0.615     137.4686  99.0000        927
 0.00   7.6672   1350.5338   1068.5331 -44.90     19.46481     0.507     0.491      0.000     137.4219  24.8269        928
 3.50   0.7959   1345.2562    603.5752 -60.83     187.7131     1.463     1.291      4.222     137.5619  22.3663        929
 4.32   0.0961    985.7224    452.4939  61.33     1553.625     2.336     2.051      8.009     137.4219  20.0716        930
 5.12   0.8746   1305.3463    842.8408  60.14     170.7292     1.346     1.277      4.368     137.4997  22.4692        931
 0.00  99.0000   1310.9131    269.8641 -37.46    -82.59208     0.806     0.677      0.000     137.4219  99.0000        932
 3.50   0.2284   1331.7229    105.6474 -23.69     653.6216     1.466     1.336      4.094     137.4686  21.0117        933
 0.00  99.0000   1313.6914    800.3595  42.83    -222.0909     0.577     0.332      0.000     137.4063  99.0000        934
 7.26  99.0000   1310.7714   1119.5833  70.25    -112.3831     0.748     0.450      4.487     137.5308  99.0000        935
 7.04   0.5373   1330.7285   1185.0146   0.39      278.126     0.739     0.679      3.972     137.6086  21.9394        936
 4.08   0.3815    964.1526    414.7169 -22.96     391.2427     1.345     1.206      4.521      137.453  21.5689        937
 3.50   0.6146   1329.3531    385.2936  18.18     242.7666     1.370     1.293      2.521     137.3907  22.0870        938
 7.07   2.5057   1308.0293    295.4808  89.01     59.59378     0.802     0.500      4.598     137.4997  23.6120        939
 4.26   0.0986   1202.2534   1074.0476  39.23     1514.658     2.381     1.908      8.035     137.5308  20.0992        940
 7.46   0.9354   1327.9865   1117.4819  27.72      159.679     1.026     0.666      2.695     137.5308  22.5419        941
 0.00   1.3453   1179.3655   1402.4209 -43.21     111.0206     1.087     0.939    -10.194     137.5308  22.9365        942
 5.37   0.1428   1329.8546   1138.1758 -79.15     1046.633     2.771     1.831     10.346     137.5775  20.5005        943
 6.51   5.7956   1299.1119    845.1188 -41.87     25.75045     0.824     0.665      1.965     137.4219  24.5230        944
 0.00   2.5391   1322.4180    957.7776 -19.80     58.81651     0.734     0.453      4.402     137.5153  23.6263        945
 6.67  99.0000   1306.0127   1306.5032 -88.18    -195.5569     0.767     0.500      4.601     137.4686  99.0000        946
 7.47   2.2708   1325.5167    582.4986 -44.05     65.69029     0.504     0.496      2.645     137.3596  23.5062        947
 3.50   0.0495   1328.8699    654.2535  15.05     3013.408     1.798     1.651      5.007      137.453  19.3524        948
 3.50   0.0009   1297.3170    723.3209 -20.12     166976.3     2.734     2.177      5.770     137.4374  14.9934        949
 0.00  99.0000   1325.6760    493.3169  45.36    -181.6672     0.566     0.339      0.000     137.4219  99.0000        950
 5.70   1.4689   1317.3490    995.2737 -49.23     101.5966     0.556     0.341      2.203     137.4219  23.0328        951
 8.37   2.2467   1324.3121    755.6535  43.45     66.42001     0.573     0.335      2.998     137.4063  23.4943        952
 5.69   0.4066   1324.2559    631.8288  11.81      367.431     1.992     0.873      6.676     137.5619  21.6371        953
 0.00  99.0000   1316.0146   1355.5168   2.72    -152.5331     0.814     0.696      0.000     137.5464  99.0000        954
 7.14   5.4583   1323.5435   1533.4946 -17.86     27.34195     0.500     0.498      2.438     137.4219  24.4579        955
 3.52   0.1932   1318.3228    262.3828 -32.59     773.2911     1.362     1.299      4.240     137.5619  20.8291        956
 8.48   0.8621   1309.3507    976.3036 -47.19     173.0073     0.571     0.336      3.330      137.344  22.4548        957
 6.49   1.0593   1314.3674   1132.9388  55.72     140.9792     0.998     0.827      4.103     137.5153  22.6771        958
 5.14   1.8452    983.6352    952.3682 -44.27     80.94299     1.029     0.854      5.228     137.5308  23.2796        959
 3.97   0.0558   1306.5763   1034.6173 -38.63     2676.746     2.883     2.225      8.086     137.4841  19.4810        960
 5.10   1.4238   1179.1798    804.8381 -43.97     104.9237     0.760     0.567      0.991     137.5619  22.9978        961
 3.50   0.2746   1291.6342    411.0501  47.23     544.1179     1.393     1.385      4.040     137.5619  21.2108        962
 3.84   2.7035   1276.5541    341.9091   0.17      55.2019     1.037     0.934      0.999     137.4219  23.6951        963
 0.00  99.0000   1282.2822   1567.5802 -25.62    -269.8443     0.956     0.926    -11.099     137.5464  99.0000        964
 3.50   0.1095   1200.7344    337.4216 -85.04     1364.551     1.527     1.481      4.309     137.5464  20.2125        965
 3.50   0.0157   1271.7943    608.2745 -57.94     9498.782     4.700     2.690     10.305      137.593  18.1058        966
 4.38   0.4980   1298.1959     52.1956 -14.09     299.8107     1.299     1.158      5.329     137.4686  21.8579        967
 5.00   0.6637   1302.3595     41.0330  74.89     225.1274     0.973     0.745      4.488     137.5775  22.1689        968
 4.11   0.5514   1261.1654    853.7753 -72.93     270.8544     1.346     1.194      3.357     137.5308  21.9682        969
 4.74   2.1975   1290.6379    544.2036  -9.64     67.96062     1.184     1.135      4.409     137.5153  23.4694        970
 4.62   0.4079    977.8370   1064.7621 -21.83     366.3711     0.910     0.673      3.876     137.6086  21.6402        971
 4.49   0.5784    976.3340   1279.1010   8.66      258.148     1.105     0.884      4.107     137.4841  22.0203        972
 4.06   0.1839    980.0076    796.3323 -73.32     812.4362     2.027     1.803      5.064      137.593  20.7755        973
 3.50   0.0240   1290.3904    760.6078 -27.66     6206.942     2.320     1.762      5.326      137.453  18.5678        974
 0.00  99.0000   1292.6594   1089.9292  13.47    -95.02132     1.088     0.882      6.528     137.4686  99.0000        975
 4.40   0.3413    977.1331    451.0668 -39.97     437.2619     1.514     1.351      4.937     137.4219  21.4481        976
 4.78   0.8101    981.2401   1485.5278  85.40     184.3498     1.178     1.087      3.867     137.5153  22.3859        977
 3.50   0.1321   1258.4731    430.8547  -8.03      1129.78     2.376     2.228      6.201      137.453  20.4175        978
 3.50   0.0395   1277.2070   1329.9368 -82.53     3785.712     1.693     1.643      4.424      137.593  19.1046        979
 5.89  99.0000   1197.0349    411.0031  41.07     -57.7357     0.785     0.772      4.559     137.5308  99.0000        980
 0.00  99.0000   1283.9741    335.3248  86.16    -155.5045     0.727     0.675      0.000     137.4997  99.0000        981
 3.50   0.0001   1220.4823    993.4163 -37.77      1059797     7.578     7.152     10.479     137.5308  12.9869        982
 0.00   0.6943   1282.9823    860.6916 -87.47     215.0624     0.731     0.684      0.000     137.4997  22.2186        983
 7.12   0.5544   1194.8246   1051.5466  23.28     269.5273     1.611     1.217      9.665      137.593  21.9735        984
 7.95   0.3496   1178.3083   1306.1929  27.17      427.039     1.029     0.782      6.171     137.4686  21.4738        985
 7.33   0.5843   1311.9750    998.1782  24.14     255.6145     1.428     1.349      8.567     137.5308  22.0310        986
 3.77   0.3616   1272.8544    696.4041 -36.79      413.285     1.509     1.327      4.294     137.6241  21.5094        987
 4.44   0.5654   1171.6045    231.0946 -41.80     264.0293     1.130     1.017      2.670     137.4686  21.9959        988
 3.50   0.0510   1264.4137    806.2878 -53.77     2927.388     1.596     1.575      4.526     137.5153  19.3838        989
 3.80  99.0000   1172.3651    206.6084 -37.08    -28.30102     0.986     0.860      5.286     137.5464  99.0000        990
 3.50   0.5677   1261.2965    214.4017 -16.98     263.0206     1.153     1.051      2.119     137.4997  22.0000        991
 4.73   0.4673   1073.4191    350.8751  56.43     319.7722     1.618     1.222      5.076      137.593  21.7879        992
 5.71   0.6051   1237.0530    855.8490 -63.65     246.7876     1.573     1.260      7.478     137.5153  22.0692        993
 3.50   0.0696   1233.3096    303.1423  18.32     2143.243     1.556     1.536      4.116     137.4374  19.7223        994
 3.64   0.1172   1150.1465     97.7522 -36.54     1274.438     1.544     1.434      4.845     137.5308  20.2867        995
 6.52   0.5134   1152.1550    574.7542 -35.67     290.9646     1.059     0.528      4.995     137.5619  21.8904        996
 3.51   0.2093   1241.5562    671.1758 -25.54     713.8029     1.393     1.354      4.446     137.5619  20.9161        997
 4.95   0.8581   1242.9980    612.2227  22.85     174.0374     1.099     0.994      4.612     137.5153  22.4484        998
 4.59   2.1684   1145.6395    793.0922 -71.89     68.80859     0.981     0.738      2.770     137.3907  23.4559        999
 8.63   2.0596   1223.6670    166.6732 -45.28      72.4518     0.574     0.335      3.446     137.4063  23.3999       1000
 8.08   1.6406   1256.3369    785.6838  45.96     90.98579     0.571     0.336      3.000      137.453  23.1526       1001
 7.90  99.0000   1266.6522   1225.3049  47.01    -217.5447     0.571     0.336      1.075     137.4219  99.0000       1002
 3.50   0.0053   1137.4563    146.3187 -42.47     27984.01     1.961     1.925      5.415      137.453  16.9327       1003
 5.16   0.1967   1228.8237    597.3657  11.27     759.2117     2.186     2.045      9.632     137.5308  20.8491       1004
 4.66   6.9808   1144.4586   1337.5741 -25.39     21.39793     1.800     0.663      1.869     137.5464  24.7241       1005
 3.55   0.2511   1236.5978     46.4783 -25.58     594.9413     1.265     1.245      4.066     137.5464  21.1138       1006
 6.95   3.4455   1223.5723    403.7314  18.80     43.34884     0.740     0.458      3.945     137.5308  23.9576       1007
 0.00   1.6041   1145.5074    325.5353  51.36     93.06875     0.502     0.497      0.000     137.4686  23.1280       1008
 3.50   0.0178   1218.0103   1193.4858  60.77     8411.509     2.082     1.947      5.373     137.5153  18.2378       1009
 7.98   0.4919   1235.3204   1083.3505 -43.74     303.5283     0.579     0.332      3.473     137.4686  21.8445       1010
 0.00  99.0000   1243.6218   1537.6320 -44.88    -345.1361     0.830     0.527      4.983     137.5153  99.0000       1011
 8.55   8.4179   1266.7814   1319.3940 -72.31     17.73704     0.758     0.452      4.060     137.4841  24.9278       1012
 3.50   0.1090   1236.1622   1552.1968 -65.12     1369.984     1.596     1.470      4.843     137.5153  20.2082       1013
 3.50  99.0000   1018.5269   1153.4111  -0.33    -92.32524     1.229     0.946      2.418      137.593  99.0000       1014
 7.55   0.3057   1227.6276    913.8499 -46.39     488.6467     2.023     1.571     11.778     137.5619  21.3275       1015
 0.00  99.0000   1205.8582    721.3466  21.94    -95.34211     0.897     0.672    -41.456     137.4841  99.0000       1016
 4.06   0.9157   1203.3120   1215.9677 -84.29     163.0598     1.211     1.092      4.608     137.4841  22.5191       1017
 3.50   0.0182   1209.7362   1277.4784  80.56     8219.322     6.224     3.768     11.774     137.4063  18.2629       1018
 4.00   0.1091   1193.9706    122.6117 -61.13     1369.563     2.764     2.215      6.682     137.5464  20.2085       1019
 8.08   0.4192   1187.7859    935.4896 -87.53     356.2363     1.203     1.011      6.841     137.5153  21.6707       1020
 5.73   0.7181   1119.7361    638.2556  27.56     207.8624     1.206     0.860      5.694      137.453  22.2556       1021
 3.50   0.6217   1051.3622    235.9432  32.08     240.2352     1.490     1.156      4.294     137.5308  22.0984       1022
 3.50   0.2036   1200.0221   1440.7618  59.48     733.6656     1.894     1.712      5.157     137.5464  20.8863       1023
 4.51   0.5758   1209.5909   1414.3743   9.66     259.4055     1.422     1.143      5.823     137.5308  22.0151       1024
 4.15   5.9011   1195.9269   1332.2697 -14.97     25.28722     0.995     0.748      3.931     137.4063  24.5427       1025
 4.61   0.3611   1220.3372   1429.9238  84.77      413.286     1.417     1.154      5.550     137.4374  21.5094       1026
 6.99   1.2607   1213.7550    819.9827  -0.83     118.4948     0.692     0.430      0.289     137.5619  22.8658       1027
 3.50   0.0983   1206.7311    837.2480 -41.52     1519.129     1.541     1.463      4.588     137.4686  20.0960       1028
 3.50   0.3328   1180.6982    174.5491  26.47     448.2325     1.238     1.222      3.788      137.344  21.4212       1029
 5.70   0.4725   1209.7368    827.6579  16.90     315.9698     1.448     1.148      7.017     137.4841  21.8009       1030
 3.50   0.0116   1213.5745    511.3500 -38.01     12893.35     1.835     1.828      5.004      137.593  17.7741       1031
 0.00  99.0000   1207.7600    394.6057  72.26    -168.2558     0.730     0.457    -48.959     137.5464  99.0000       1032
 4.58   3.8515   1196.0884   1199.0935  46.17      38.7443     0.884     0.530      2.799     137.4063  24.0795       1033
 4.94   0.8729   1185.0298    389.9896  -6.69     171.1286     0.789     0.775      3.203     137.5464  22.4667       1034
 6.12   0.4680   1181.9106    672.2681 -57.78     318.9316     1.557     1.403      4.564     137.4374  21.7908       1035
 3.73   0.2594   1179.9535    547.8245  33.47     575.8721     1.364     1.357      4.311     137.5775  21.1492       1036
 4.36  99.0000   1184.2402    312.2132 -22.80    -194.1386     1.078     0.962      5.290     137.5308  99.0000       1037
 4.12   0.2326   1160.7577    886.1613 -11.43     642.2553     1.344     1.266      3.866     137.5775  21.0307       1038
 7.61   0.8779   1186.3094   1131.6678  43.87     170.0072     0.566     0.339      2.947     137.4374  22.4738       1039
 0.00  99.0000   1192.4258   1420.2084  19.71    -160.9578     0.732     0.455    -10.621     137.5308  99.0000       1040
 7.65   0.4984   1207.4939    897.5187  46.79     299.4625     0.502     0.497      3.014     137.4374  21.8591       1041
 7.24   0.8796   1114.8074    506.0762 -30.74     169.8339     1.027     0.650      5.855     137.5619  22.4749       1042
 6.07   4.1717   1186.1923   1233.0450  56.35     35.81118     1.160     0.885      2.416     137.5619  24.1650       1043
 6.56   0.5320   1174.8932    251.6610  11.06     280.5582     1.015     0.750      4.951     137.4374  21.9299       1044
 3.50   0.0002   1150.6979    692.2507 -40.10     642509.1     2.991     2.766      6.129      137.344  13.5303       1045
 4.30   0.4057   1144.4299    768.3488 -61.36     368.2541     1.771     1.209      4.263     137.5619  21.6346       1046
 3.85   0.0312   1171.4708    756.1021 -33.22     4784.455     3.960     3.868     10.283      137.453  18.8504       1047
 0.00   8.5337   1175.9377     17.3926 -22.54     17.51206     1.619     1.005      2.073     137.6086  24.9417       1048
 6.61   1.2558   1125.2902    164.8492  70.61     118.8536     0.895     0.680      3.474     137.4374  22.8625       1049
 4.50   0.6858   1166.0374   1598.7543  85.63     175.2386     1.490     1.059      5.845     110.6684  22.4409       1050
 5.45   0.2714   1091.8989    427.6651  30.14     550.1056     2.425     1.868      8.206     137.4686  21.1989       1051
 4.44   1.2757   1175.9453   1597.4050 -79.72     101.8087     1.094     1.028      1.065     119.5892  23.0305       1052
 7.06   0.3769   1156.7014    969.3441 -40.41     395.8188     1.126     1.041      6.757     137.3752  21.5563       1053
 3.72   0.1818   1152.6770   1351.5101  43.01      820.977     1.759     1.731      5.058     137.4063  20.7642       1054
 4.99   1.1531   1155.5557    350.0587 -27.73     129.5016     1.037     0.948      1.902     137.4997  22.7693       1055
 3.50   0.0286   1156.7567    234.6808 -67.11     5227.904     1.714     1.687      4.964     137.4841  18.7542       1056
 6.51  99.0000   1154.2673   1123.8539  24.62    -6.997649     0.860     0.605      1.751      137.453  99.0000       1057
 0.00  99.0000   1166.2483    638.0128 -83.71    -322.3238     0.920     0.751   -185.074     137.5775  99.0000       1058
 7.19  99.0000   1161.4749      1.5296 -45.59    -68.79359     0.505     0.493      1.809     105.3392  99.0000       1059
 0.00  35.0430   1156.9889    184.2023 -31.23      4.26022     1.329     1.192      7.974     137.4686  26.4764       1060
 8.50   0.5699   1159.9375    652.5840  -4.77     262.0366     1.459     0.757      8.757     137.4997  22.0041       1061
 4.84   0.6907   1155.0481    565.7809 -78.75     216.2819     1.556     1.233      3.566     137.5464  22.2124       1062
 4.26  99.0000   1208.3016   1453.4398 -82.28     -204.215     0.946     0.484      4.148     137.3907  99.0000       1063
 5.54   0.4651   1146.6655    110.8165 -14.66     321.2244     1.117     0.937      5.194     137.5619  21.7830       1064
 8.68   0.4937   1217.2678    929.2231  70.57     302.5814     1.152     0.786      5.789     137.5619  21.8479       1065
 6.84   0.6088   1140.6166    660.0571 -21.11     245.3226     2.373     1.795     13.463     137.5308  22.0757       1066
 6.69   0.5654    990.3327      7.2293 -21.98     261.5352     1.737     1.266      3.950     136.1706  22.0062       1067
 5.84   0.6934   1222.1085    828.6718 -10.95       215.26     0.980     0.747      2.228     137.4374  22.2176       1068
 4.41   0.2857   1132.9391    605.9112  73.48     522.5027     1.391     1.379      5.612      137.453  21.2548       1069
 0.00   1.9806   1219.5068     73.4842  18.65     75.33487     0.967     0.415      0.000     137.3907  23.3575       1070
 0.00  99.0000   1125.6958    619.6655 -43.46    -22.56826     0.565     0.339      0.000      137.453  99.0000       1071
 0.00  99.0000   1139.2007    423.4065  70.51    -48.64428     0.780     0.442     -2.502      137.453  99.0000       1072
 3.99   0.1253   1211.9031   1427.9541  72.88     1190.867     2.943     2.409     10.541     137.3752  20.3603       1073
 5.13   0.8594   1128.6337    503.3135  55.99     173.7714     1.020     0.956      2.577     137.5153  22.4501       1074
 4.07   1.0998   1124.4620    274.7958  86.87     135.8805     0.911     0.731      2.735     137.6086  22.7171       1075
 3.87   0.3811   1072.2122      5.1864  25.59     365.4986     1.357     1.306      4.589     128.2569  21.6428       1076
 4.49   1.8207   1130.0833    357.5840 -18.88     82.04238     1.294     1.126      7.765     137.5464  23.2649       1077
 3.88   0.2653   1128.2203    545.7869 -63.31     562.7327     1.398     1.323      4.678     137.4841  21.1742       1078
 3.50   0.0104   1128.9330    181.7584 -65.97     14293.68     1.857     1.799      5.090     137.5153  17.6621       1079
 0.00  99.0000   1129.2748   1143.1685 -67.45    -113.0075     0.898     0.673   -140.530     137.4841  99.0000       1080
 3.58   0.0690   1119.3263    328.0645  59.53     2163.224     3.112     1.962      7.516     137.4219  19.7122       1081
 3.95  99.0000   1134.3956    249.1927  18.48    -30.25325     0.751     0.450      3.898     137.4997  99.0000       1082
 7.73   0.5240   1128.5703    872.3510  50.06     285.0933     1.098     0.947      4.364     137.5619  21.9125       1083
 3.50   0.1853   1129.1437    217.8233  -0.90     806.0983     1.679     1.377      4.821     137.5619  20.7840       1084
 4.72   1.1170   1127.0687    836.1553  72.39     133.6727     1.140     1.096      3.048     137.4841  22.7349       1085
 0.00  99.0000   1121.8944    916.8176 -47.45    -76.11855     0.830     0.681      0.000     137.4997  99.0000       1086
 3.50   0.5412   1115.4246   1168.9977 -30.26     275.9121     1.869     1.173      2.467     137.4997  21.9481       1087
 5.00   0.1223   1110.1536    478.0455  21.94     1221.043     3.592     2.456      9.929     137.5619  20.3332       1088
 5.43   0.1933   1104.6339    677.1640  42.12     772.8737     2.389     1.925      6.101      137.593  20.8297       1089
 4.97   0.4079   1113.0698    672.7105 -49.07     365.7963     1.487     1.374      6.737     137.4063  21.6419       1090
 3.50   0.0241   1106.4424    426.3352  -2.97     6207.565     1.778     1.734      5.072     137.4997  18.5677       1091
 6.65   2.4721   1123.6516    756.7012 -55.08     60.33482     1.395     0.713      1.330      137.344  23.5986       1092
 3.83   0.4143   1227.7966   1152.1625   6.95     360.4424     1.283     1.180      4.827     137.5153  21.6579       1093
 7.06   0.4035   1120.9031    739.7697   1.21     369.8192     1.153     1.103      5.245     137.4219  21.6300       1094
 7.46   3.5533   1116.5735    663.2923 -55.12     42.01473     1.202     0.903      3.005     137.4686  23.9915       1095
 6.49   0.9328   1107.3492    969.5021 -38.59     159.8965     1.153     0.787      4.203      137.344  22.5404       1096
 6.57   0.4058   1107.8087   1122.0542 -24.47      368.239     1.089     0.986      6.004     137.6086  21.6347       1097
 3.50   0.0156   1103.5216    750.2457 -80.52     9556.241     1.840     1.805      5.141      137.453  18.0993       1098
 6.27   0.8216   1098.0856    861.6343  23.30     181.7596     0.913     0.684      4.340     137.5153  22.4013       1099
 3.66   3.5270   1105.8539   1265.6027 -73.49     42.37052     0.996     0.937      2.210     137.6086  23.9823       1100
 3.78   0.4121   1093.7102   1134.7550  43.87     362.1633     1.241     1.189      3.808     137.4374  21.6527       1101
 0.00   1.4404   1083.3682    844.8711  18.69     103.6791     1.155     0.559      1.774     137.5153  23.0108       1102
 4.54   0.2329   1089.9347    466.4854 -61.50     640.7322     2.975     1.457      5.411     137.4374  21.0333       1103
 6.86  99.0000   1104.0472    625.1929   0.87    -63.72562     0.903     0.747      2.913     137.5775  99.0000       1104
 0.00  99.0000   1100.2462   1350.5948 -71.54    -87.62318     0.741     0.455      4.444     137.5775  99.0000       1105
 3.50   0.0056   1093.8265    776.4818  77.16     26698.64     1.961     1.927      5.309     137.4997  16.9838       1106
 6.57   1.0732   1100.1895    111.4014   3.89     139.1286     1.532     0.729      9.194     137.4841  22.6915       1107
 3.50   0.1987   1078.2745    328.4379 -72.47     751.6034     1.321     1.270      3.701     137.4997  20.8600       1108
 6.71   1.6495   1086.4587   1010.4974 -89.79     90.46371     1.024     0.500      4.106     137.4063  23.1588       1109
 0.00  99.0000   1025.2939      5.6823 -44.62    -194.1126     1.023     0.855      0.000     130.4568  99.0000       1110
 4.58   5.3106    991.3894    344.4407 -41.58     28.12442     1.046     0.911      0.894     137.5308  24.4273       1111
 3.50  29.3478   1085.4760   1451.4103  72.66     5.091554     1.706     1.298      2.943      137.593  26.2829       1112
 4.70   0.2762   1036.8929    120.3716 -38.12     540.6044     2.717     1.447      4.493     137.4686  21.2178       1113
 4.56   0.3940   1087.1880    395.1648  66.43     379.1612     1.463     1.220      4.311     137.5464  21.6029       1114
 3.50   0.0173   1080.8375   1146.6793  76.04     8605.551     1.813     1.771      4.983     137.4686  18.2131       1115
 3.50   0.0050   1079.0332    510.4736 -24.60     29675.69     1.953     1.929      5.257     137.4841  16.8690       1116
 0.00  13.4300   1092.0052     85.9887   0.12     11.11371     0.615     0.591   -133.975     137.4374  25.4354       1117
 3.50   0.2490   1094.6221   1525.1913 -19.28     599.7319     1.401     1.306      4.306     137.5153  21.1051       1118
 4.39   0.6978   1082.7184     41.1866 -14.53     214.0645     1.718     1.416      3.948     137.5464  22.2236       1119
 3.50   0.0588   1088.2264    640.8442 -72.59     2540.636     1.609     1.598      4.446      137.593  19.5376       1120
 6.21   0.7346   1076.9998    467.1212  -3.27     203.3313     0.902     0.754      4.947     137.5464  22.2795       1121
 5.59   3.2314   1079.4098     51.4028 -79.52     46.20046     1.106     1.038      5.226     137.4686  23.8884       1122
 3.83   0.2702   1065.7271    567.4913 -56.50     552.4565     1.476     1.201      4.058     137.4374  21.1943       1123
 3.50   0.0057    983.9257    556.8555 -42.57     26370.73     1.926     1.904      5.192      137.453  16.9972       1124
 4.71   1.0565   1078.1080    920.8275  66.19     141.3133     1.124     1.073      3.065     137.4686  22.6745       1125
 3.86   0.0838   1071.2220   1217.4718 -71.39     1783.586     2.761     2.228      7.126     137.5775  19.9218       1126
 3.87   0.6883   1062.9009    290.3270 -17.99     216.7889     1.326     1.092      4.829     137.3907  22.2099       1127
 4.14   0.1390   1058.9795    725.3511  27.58     1074.429     2.247     1.912      7.397     137.5464  20.4721       1128
 3.50  99.0000   1064.8350   1595.6906 -33.70    -42.82298     1.263     1.153      2.271      128.856  99.0000       1129
 4.21   0.2870   1062.2283      5.4857 -52.96     490.7082     1.298     1.259      4.614     129.6836  21.3229       1130
 4.57   0.7022   1059.5107    689.4771   0.05     212.5086     0.932     0.864      3.285     137.4063  22.2316       1131
 6.36   0.4627   1046.7865   1156.9656  27.93     322.8403     1.197     0.850      5.795     137.5619  21.7775       1132
 4.24   0.4479   1051.7198    398.9368 -89.36     333.1667     1.348     1.059      4.371     137.4219  21.7433       1133
 6.01   0.5067   1055.1431    663.3669  13.34     294.8015     1.013     0.744      5.703     137.5464  21.8762       1134
 3.50   0.0039   1039.2853    631.3804 -49.34     38016.33     2.088     1.939      5.417     137.5308  16.6001       1135
 6.18   0.8736   1057.1534   1123.1493 -43.75     171.0098     0.844     0.666      2.755     137.5619  22.4674       1136
 3.50   0.0193   1037.6875    523.7844  82.33     7743.664     1.797     1.754      4.930     137.4997  18.3276       1137
 0.00  99.0000   1052.6602   1383.8416 -68.89    -16.69608     0.890     0.685     -8.137     137.5153  99.0000       1138
 6.02   1.0242   1027.8234    179.1355 -52.97     145.8482     1.423     1.147      2.869     137.5464  22.6402       1139
 4.94   0.3386   1039.5846    465.5715  37.87     441.1522     1.452     1.312      6.593     137.5464  21.4385       1140
 3.97   0.7520   1047.2478    206.8765 -11.74     198.5126     1.094     0.833      5.037      137.453  22.3055       1141
 5.50   1.8029   1042.3126    808.1299 -14.47     82.76893     1.112     0.924      3.126     137.4063  23.2553       1142
 4.02   1.2767   1016.2695    199.5809  18.99     117.0405     1.236     1.122      1.814      137.593  22.8792       1143
 4.06   0.5549   1041.7119   1094.4143  28.50     269.1409     1.437     1.001      3.465     137.5153  21.9750       1144
 3.55   0.1002   1029.2145    300.9569  69.13     1490.566     2.901     2.072      7.196     137.5308  20.1166       1145
 3.50   0.0004   1022.7297     48.6186 -37.90     417835.4     2.685     2.505      5.851     137.5775  13.9975       1146
 3.67  15.1906   1027.3291    350.5170 -66.38     9.823371     1.107     1.000      1.523     137.4063  25.5693       1147
 0.00  99.0000   1025.4962   1265.4888  14.80    -79.79144     0.939     0.828      0.000     137.3596  99.0000       1148
 4.28   0.1855   1064.3027   1561.6237 -68.73     804.7135     2.962     1.914      7.109      137.453  20.7859       1149
 0.00 269.7831   1036.3783    240.4039 -37.58     0.553499     1.027     0.935     -1.303     137.4997  28.6922       1150
 3.57   0.3013   1027.0311    462.4027 -37.76     495.6549     0.988     0.881      3.248     137.5153  21.3120       1151
 5.02   0.3872   1032.5149    492.2410   0.18     385.6811     0.980     0.733      4.085     137.4997  21.5844       1152
 4.17   0.6470   1020.2591   1267.1692  47.80     230.8813     2.514     1.303      9.554     137.5464  22.1415       1153
 3.50   0.0101   1008.8619    812.1073 -82.81     14775.22     1.877     1.834      5.208      137.453  17.6262       1154
 3.50   0.3482   1013.5268    451.3891  27.57      429.112     1.345     1.170      4.248      137.593  21.4686       1155
 0.00  99.0000   1063.4943   1411.9753  -0.16    -201.7143     0.781     0.500      0.000     137.4686  99.0000       1156
 3.50   0.0086   1024.8649   1378.5510 -82.06     17348.15     1.953     1.831      5.052     137.4841  17.4519       1157
 7.73   0.4192   1030.0013   1250.8098  33.43     356.2071     0.827     0.511      1.404     137.4841  21.6707       1158
 5.29   0.5221   1032.7292    100.3251  -5.16     285.8105     1.095     0.923      4.508     137.4063  21.9098       1159
 3.67   0.2664   1067.0671   1472.6465  14.80     560.4329     2.853     1.685      7.411     137.4997  21.1787       1160
 5.60   0.8613   1022.9913    581.0145  45.11     173.2965     0.892     0.530      1.411     137.4374  22.4530       1161
 3.50   0.0625   1010.2941    343.0845 -43.84     2388.497     1.582     1.572      5.001     137.3596  19.6047       1162
 4.61   1.3297   1026.7218    605.8604 -20.37     112.2645     1.088     0.985      6.011      137.453  22.9244       1163
 4.24   1.1557   1029.0066    945.7131 -19.93     129.2077     1.008     0.735      2.067     137.4997  22.7718       1164
 5.65   2.3449   1031.0654   1166.3285  84.44     63.64588     0.728     0.660      4.142     137.4219  23.5406       1165
 0.00   0.8260   1028.5928   1033.8938  69.92     180.7603     0.977     0.731      0.000     137.4841  22.4072       1166
 5.02   0.3022   1009.9540    266.0563  51.17     494.1313     1.434     1.326      6.778     137.4997  21.3154       1167
 8.13  99.0000   1011.4933   1420.4790  46.47    -13.40091     0.504     0.496      2.294     137.4219  99.0000       1168
 4.73   0.5638    992.2521    498.1241 -23.07     264.6996     1.114     0.990      4.492     137.4219  21.9931       1169
 6.00   1.0963   1008.5602    188.8148 -20.76     136.2694     0.877     0.755      5.262     137.5619  22.7140       1170
 5.88  99.0000   1045.1786   1524.8705 -45.08    -163.0295     0.749     0.566      4.014     137.5775  99.0000       1171
 7.97   0.3753   1024.3489    126.8366  28.95     397.9154     0.992     0.925      5.953     137.5153  21.5505       1172
 3.50   0.0564   1000.7156    541.0194  18.60     2649.006     1.665     1.606      5.117     137.5308  19.4923       1173
 3.50   0.1539   1000.5395   1554.0876  45.04     969.5333     1.412     1.405      4.180     137.4374  20.5836       1174
 0.00  99.0000   1003.3071      6.3228 -44.16     -16.2957     0.561     0.341      0.000     133.1676  99.0000       1175
 3.50   0.1788    998.9015   1272.4629 -26.60     834.9152     1.457     1.308      4.118      137.453  20.7459       1176
 4.58   3.1405    998.6765   1439.8641 -68.05     47.52097     0.896     0.674      5.377     137.4219  23.8578       1177
 3.50   0.7897    997.2492    231.6880 -45.35     189.0189     1.223     1.170      3.305      137.453  22.3587       1178
