#   1 NUMBER                 Running object number                                     
#   2 FLUX_BEST              Best of FLUX_AUTO and FLUX_ISOCOR                          [count]
#   3 FLUXERR_BEST           RMS error for BEST flux                                    [count]
#   4 MAG_BEST               Best of MAG_AUTO and MAG_ISOCOR                            [mag]
#   5 MAGERR_BEST            RMS error for MAG_BEST                                     [mag]
#   6 KRON_RADIUS            Kron apertures in units of A or B                         
#   7 X_IMAGE                Object position along x                                    [pixel]
#   8 Y_IMAGE                Object position along y                                    [pixel]
#   9 A_IMAGE                Profile RMS along major axis                               [pixel]
#  10 B_IMAGE                Profile RMS along minor axis                               [pixel]
#  11 THETA_IMAGE            Position angle (CCW/x)                                     [deg]
         1     3766.132     174.6721  19.1150   0.0504  6.25   1647.0709     26.4915     2.958     2.144  31.28
         2     3883.073     67.93871  19.0818   0.0190  3.96   1941.9868     17.9671     1.624     1.497 -85.15
         3     466.0569     56.97906  21.3837   0.1328  4.29    169.1046     17.9107     1.568     0.930  52.98
         4     359.7748     64.08714  21.6647   0.1935  7.50   1582.3114     11.2896     1.081     0.557 -63.62
         5     436.7494     64.08714  21.4542   0.1594  6.49   1811.2614      9.9056     0.987     0.828  37.19
         6     243.6975     47.21867  22.0877   0.2104  7.33    335.6210      8.1942     0.769     0.451 -73.24
         7     1826.966     71.30959  19.9005   0.0424  4.68   1602.9838      2.2750     2.003     1.437  -2.39
         8     312.5383     55.58912  21.8175   0.1932  6.07   1016.7794      5.0980     1.206     0.652 -76.94
         9        302.1     54.88095  21.8544   0.1973  6.03     98.5942      5.4326     0.994     0.682  34.34
        10     453.5393     60.63735  21.4132   0.1452  7.28    698.1990      2.9920     1.323     0.547  25.09
        11     740.5013     67.65022  20.8810   0.0992  6.06    686.3784      2.0239     1.675     0.905   8.77
        12      180.665     24.22266  22.4126   0.1456  3.50    504.6548      1.4289     0.914     0.482   8.22
        13     2690.257     71.58334  19.4803   0.0289  4.30   1482.8679     29.3350     1.591     1.408  87.24
        14     311.7072     51.57399  21.8204   0.1797  9.14   1449.5017     13.9950     0.811     0.308 -58.36
        15     503.0009     51.57399  21.3009   0.1114  3.50    104.4232     25.2731     1.544     1.162 -77.21
        16     304.3817     48.44533  21.8462   0.1728  8.88    378.5100     19.5315     0.504     0.495  42.18
        17     786.6057     65.59528  20.8154   0.0906  4.96    929.8914     35.4471     1.305     1.100 -65.09
        18      131.182     37.00073  22.7601   0.3063  7.62    300.3286     26.3016     0.561     0.341 -43.56
        19     656.4016     48.03992  21.0119   0.0795  3.50    516.4299     41.5144     1.323     1.105  87.36
        20     2627.625     109.0468  19.5059   0.0451  4.53    550.0869     65.5800     2.760     1.700 -71.58
        21       3482.7     59.00262  19.2000   0.0184  3.50     77.3858     47.5405     1.576     1.462  82.24
        22     449.2355     67.06952  21.4236   0.1621  7.17   1448.8123     37.0085     0.922     0.760  -6.94
        23     1809.295      82.9722  19.9110   0.0498  5.05   1613.3472     53.3535     1.528     1.447  58.80
        24     137.4534     38.04321  22.7094   0.3006  5.75   1029.6289     42.1951     0.764     0.445 -72.48
        25     4352.329     121.7575  18.9580   0.0304  4.41    519.8821     74.8720     2.812     2.179  84.94
        26     2102.618     69.36315  19.7479   0.0358  3.50    139.9962     60.4509     1.853     1.703 -20.24
        27     335.5238     60.31395  21.7405   0.1952  7.18   1464.2684     47.8447     1.100     0.521 -36.46
        28     2148.828     76.08642  19.7243   0.0385  4.71   2039.9457     61.5188     1.571     1.367  77.14
        29     246.1711     51.19336  22.0767   0.2258  6.95    877.1786     49.1961     0.781     0.567  42.98
        30     197.7987     45.10015  22.3142   0.2476  8.19    821.5023     52.0031     0.788     0.317 -57.59
        31     133.9946     21.66541  22.7371   0.1756  3.50    513.0062     50.5002     0.790     0.316 -32.35
        32     498.3535     67.65022  21.3109   0.1474  5.78   2029.2487     62.8848     1.135     0.972 -70.90
        33     340.3623     63.78124  21.7249   0.2035  7.11   1616.8848     62.4436     1.110     0.590 -62.57
        34     188.9202     44.66439  22.3641   0.2568  7.78   1151.0000     59.9742     0.859     0.289  90.00
        35      195.605     38.55388  22.3263   0.2141  7.72    390.6775     57.3105     0.563     0.341  44.37
        36     338.2556     61.91406  21.7317   0.1988  8.29    746.8667     58.3510     1.078     0.419  13.29
        37     273.8093     54.16352  21.9612   0.2148  6.73    381.3265     64.5882     0.952     0.546 -58.38
        38     545.1853      79.6038  21.2134   0.1586  6.94    709.2628     68.6433     1.244     0.863  24.68
        39     333.7565     53.80122  21.7462   0.1751  5.60   1658.9302     67.0388     1.038     0.728   1.05
        40     799.6901     49.64169  20.7975   0.0674  3.65    936.5364     76.4685     1.307     1.140  86.05
        41     1260.307     117.6733  20.3036   0.1014  6.69   1332.3121     87.3375     2.152     1.169  88.08
        42     235.3815     50.80989  22.1254   0.2344  7.78    953.6157     71.8084     0.765     0.448  72.24
        43     854.0909      59.9888  20.7260   0.0763  3.50   1025.9706     85.2820     1.594     1.492  74.15
        44     1110.036     66.13701  20.4414   0.0647  5.74   1697.9368     94.5491     1.885     1.293  88.25
        45     538.6653     75.57057  21.2265   0.1524  6.46   1872.5619     80.7115     1.196     0.938 -79.38
        46     18645.99     68.79691  17.3783   0.0040  3.50    453.6153    101.9015     1.833     1.688  87.46
        47     70283.63     75.31133  15.9376   0.0012  3.50   1480.0895    148.7343     2.001     1.900 -83.03
        48     510.6898     76.08642  21.2844   0.1618  7.71   2019.2091     81.4649     1.078     0.731 -47.33
        49     15657.05     66.77728  17.5680   0.0046  3.50   1008.8705    102.6751     1.755     1.692  86.86
        50     2270.364     97.69474  19.6645   0.0467  5.15   1342.6067    101.1270     1.871     1.542 -76.73
        51     2129.515     74.00146  19.7341   0.0377  4.42   1701.8820    103.2826     1.653     1.391  83.80
        52     641.3398     79.11089  21.0371   0.1340  7.00   1175.3208     92.7015     1.211     0.872  73.37
        53     1128.229     75.82893  20.4238   0.0730  5.42   1637.3967     96.2809     1.345     1.180  62.02
        54     349.7195     64.08714  21.6955   0.1990  6.46    795.1349     93.5461     1.104     0.729  51.77
        55     112.0194     35.37946  22.9315   0.3430  6.87    308.5026     89.4943     0.503     0.497 -44.87
        56     401.9331     67.93871  21.5444   0.1836  6.98    408.7786     96.4171     1.077     0.724  49.73
        57     236.9509     44.66439  22.1181   0.2047  7.03    157.5854     95.7691     0.722     0.460  71.57
        58     678.8473     87.78279  20.9754   0.1404  6.43    441.9948    105.8248     1.322     1.140  87.54
        59     451.7448     62.54265  21.4175   0.1504  6.19   1955.8345    104.3940     1.037     0.791 -57.92
        60     3936.298     71.30959  19.0671   0.0197  4.00   1258.1428    122.5991     1.709     1.507  89.34
        61     17439.12     70.48199  17.4510   0.0044  3.50   1577.8752    139.1314     1.868     1.766  86.54
        62     96.60278     21.66541  23.0923   0.2436  4.17   1808.6515    104.6764     0.580     0.332 -43.96
        63     283.7356     55.23617  21.9225   0.2114  7.55   1500.8584    109.1227     0.765     0.568 -50.59
        64     18036.74     69.64455  17.4144   0.0042  3.50    771.8448    140.2114     1.866     1.730  84.55
        65     6938.548     63.47386  18.4516   0.0099  3.50   1863.1251    128.0072     1.697     1.600  69.10
        66     216.9158     39.55544  22.2141   0.1980  7.97   1888.3314    107.6953     0.564     0.340  43.62
        67     542.2333     78.36572  21.2193   0.1570  5.85   1506.5341    120.0791     1.290     1.159 -27.89
        68     1055.361     69.08061  20.4963   0.0711  4.53   1373.3097    130.1362     1.390     1.349  48.17
        69      112.604      26.5346  22.9259   0.2559  5.31   1720.6884    117.6470     0.576     0.333 -46.80
        70     643.1708     73.47098  21.0340   0.1241  6.14   1186.0841    123.5470     1.177     0.962  16.69
        71     223.5409     49.64169  22.1814   0.2412  8.19    244.0071    118.7465     0.691     0.435   0.36
        72     1906.599     89.32877  19.8541   0.0509  4.39    363.8372    140.8358     2.385     1.428  47.35
        73     604.3568     78.11575  21.1015   0.1404  8.54    763.6558    123.2028     0.890     0.771  -8.03
        74     422.6133     66.77728  21.4899   0.1716  7.10    889.9673    128.7347     1.318     0.542  63.85
        75      515.838     61.27903  21.2735   0.1290  5.06    988.0619    129.6417     1.221     0.957  63.38
        76     254.2548     57.66147  22.0416   0.2463  7.94   1742.9845    128.0233     0.848     0.503 -45.46
        77     1244.842     74.79013  20.3170   0.0652  5.21   1797.5446    141.5693     1.358     1.235  66.41
        78     467.6757     43.77985  21.3799   0.1017  3.95     85.3038    138.6451     1.081     0.945  78.47
        79     809.1431     97.89473  20.7847   0.1314  7.62    721.2741    139.8244     1.341     1.005 -34.85
        80     12603.63     70.48199  17.8035   0.0061  3.50    452.7217    161.3777     1.868     1.781  45.91
        81     757.7925     92.76574  20.8559   0.1329  6.02    345.6674    145.6904     1.877     1.012  58.25
        82     281.9487     48.44533  21.9294   0.1866  8.95   1759.5105    135.5075     0.505     0.495  45.15
        83     1195.238     98.69064  20.3611   0.0897  6.02     40.6581    148.4376     1.567     1.389 -34.09
        84     361.1583     59.33317  21.6605   0.1784  6.60   1905.9727    143.5631     1.050     0.656 -62.06
        85     1932.457     113.0968  19.8395   0.0636  5.58    597.8142    157.4684     1.973     1.692 -14.45
        86     172.6334     35.37946  22.4620   0.2226  6.20    557.4737    146.4538     0.505     0.492 -41.93
        87     1729.355     127.1017  19.9601   0.0798  5.84    550.9597    171.3877     2.246     1.712 -74.58
        88     126.0103     35.37946  22.8038   0.3049  6.65   1608.4930    151.4915     0.503     0.497 -44.87
        89     81479.51     74.79013  15.7772   0.0010  3.50    350.0078    194.5666     1.969     1.868 -89.90
        90     1681.644     66.77728  19.9904   0.0431  3.50    259.4762    171.5577     1.765     1.629  80.69
        91     1450.242     72.93664  20.1512   0.0546  4.78   1991.0076    168.3275     1.441     1.293 -81.20
        92     2001.189      58.3359  19.8016   0.0317  3.62   1020.8877    169.7038     1.509     1.390 -89.80
        93     158.8774     35.92802  22.5521   0.2456  6.85    534.4924    154.4826     0.519     0.480  44.82
        94     156.2598     38.55388  22.5702   0.2679  7.84    851.6857    155.3536     0.577     0.333  46.68
        95     480.6617     65.59528  21.3502   0.1482  8.57   1615.2836    156.4276     1.000     0.477  -8.48
        96      98.9845     32.49812  23.0659   0.3566  6.50   1143.6704    158.3238     0.572     0.336  44.73
        97     245.0276     47.63106  22.0817   0.2111  5.32    341.9099    166.9695     1.172     0.573 -63.98
        98      314.978      53.0692  21.8091   0.1830  5.62    693.7338    171.2967     0.938     0.759  45.54
        99     2749.865      102.004  19.4565   0.0403  4.98    766.3348    185.1148     2.031     1.657  -5.96
       100     416.8896     67.06952  21.5047   0.1747  5.89   1020.2969    176.4241     1.532     0.686  41.55
       101      330.674     57.32129  21.7563   0.1883  6.13    232.2538    173.5358     1.000     0.714  89.35
       102     423.7858     63.16498  21.4869   0.1619  6.20   1182.7476    177.0514     0.999     0.834  32.81
       103     986.9438     85.52579  20.5690   0.0941  5.72     38.7123    189.9656     1.456     1.236 -80.88
       104     830.6431     48.03992  20.7562   0.0628  3.52    458.7516    192.9014     1.332     1.166  87.86
       105     515.7229     62.22915  21.2737   0.1310  4.72    969.2155    188.6646     1.196     1.173  73.59
       106     1097.423     96.07984  20.4538   0.0951  5.74     18.0553    195.4731     1.654     1.399  79.35
       107     237.5168     49.64169  22.1155   0.2270  5.98    573.8565    184.8692     0.838     0.658 -46.95
       108     380.0828     64.69462  21.6051   0.1849  5.82   1178.7527    190.7688     1.168     0.864  52.42
       109     170.2637     40.04684  22.4770   0.2554  6.41   1295.6082    185.7716     0.750     0.446  70.78
       110     354.8571      58.6702  21.6796   0.1796  8.05   1879.5098    184.6664     0.910     0.471   1.53
       111     1972.051     82.73615  19.8175   0.0456  4.58   1677.5028    203.2450     1.737     1.529 -73.55
       112     1049.193     61.91406  20.5026   0.0641  4.08    473.9245    198.9632     1.386     1.360  34.76
       113      1323.83     72.39835  20.2502   0.0594  4.27    279.8327    199.0839     1.591     1.455  70.20
       114     1305.933     92.97633  20.2650   0.0773  5.44    900.6860    205.0399     1.778     1.333  74.51
       115     130.4022     35.37946  22.7666   0.2946  6.95   2017.4886    189.5069     0.502     0.497 -45.46
       116     373.1333     65.59528  21.6251   0.1909  6.55    987.6069    196.4421     1.096     0.733 -62.13
       117     323.1287     63.16498  21.7813   0.2123  7.40   1538.9827    198.5416     1.207     0.494 -63.58
       118     620.1381      85.2968  21.0736   0.1494  6.54   1480.1700    210.4055     1.635     0.838  61.30
       119     507.5897      79.6038  21.2910   0.1703  6.85    985.0367    207.9072     1.506     0.721 -35.57
       120     1729.355     75.31133  19.9601   0.0473  4.58   1745.4019    218.4570     1.722     1.285  66.54
       121     60.13452     39.05787  23.6070   0.7054  7.96    410.3252    203.6808     0.568     0.338  44.71
       122     413.8955     46.38287  21.5126   0.1217  3.61    259.5743    212.1023     1.337     1.037  28.45
       123      420.547     64.99623  21.4952   0.1678  8.43   1047.3317    205.5728     1.015     0.475   8.95
       124     354.6226      69.9248  21.6804   0.2141  8.03   2037.5996    211.3858     0.870     0.693 -18.63
       125     242.9432     43.33082  22.0910   0.1937  7.81    646.9507    210.5213     0.769     0.323 -33.14
       126     203.4697     36.46832  22.2835   0.1946  4.44    736.4744    213.5035     1.081     0.500  -0.77
       127     2057.625      72.1277  19.7714   0.0381  4.30   1632.4784    232.9903     1.647     1.398  85.80
       128     281.4391     40.28062  21.9313   0.1554  7.14   1975.5122    219.0452     1.149     0.696   0.56
       129     306.3413     43.16738  21.8393   0.1530  5.92   1970.3451    218.7178     1.295     0.671  15.88
       130     149.7914     34.82227  22.6161   0.2525  7.35   1864.2554    218.6345     0.554     0.340  51.30
       131     219.8723     51.57399  22.1994   0.2547  9.26   1021.5324    218.4885     0.503     0.495  48.23
       132     170.5482     45.53173  22.4752   0.2899  7.87   1443.0039    216.0000     0.853     0.289   0.00
       133     342.2549     57.99967  21.7189   0.1840  8.29   1089.0135    221.5044     0.793     0.499   3.24
       134     1489.532     80.09367  20.1222   0.0584  5.23   1777.6477    235.9377     1.408     1.371  69.92
       135     605.0815     76.08642  21.1002   0.1366  6.15    930.2176    231.0277     1.168     1.065 -29.13
       136     112.3898     21.66541  22.9280   0.2093  4.95    771.6817    224.6997     0.556     0.343 -43.97
       137     215.4966     31.27132  22.2212   0.1576  3.60    156.7184    236.1112     0.946     0.678  19.97
       138      183.751     41.95488  22.3942   0.2480  7.44     40.5127    234.5418     0.511     0.487  43.08
       139     775.4189     89.10956  20.8309   0.1248  6.60   1267.8284    245.7288     1.266     1.176  59.91
       140     528.0155      71.0348  21.2482   0.1461  7.30   1881.8417    240.4376     1.054     0.724  50.60
       141     295.7209     62.54265  21.8776   0.2297  8.41   1664.1674    235.6922     1.083     0.413  11.92
       142     1307.381     64.69462  20.2638   0.0537  3.50     14.0959    255.0190     1.824     1.495  89.34
       143     19526.53     69.64455  17.3282   0.0039  3.50   1749.8987    275.4456     1.846     1.743  79.79
       144     216.6613     46.38287  22.2153   0.2325  8.23    945.0000    250.0212     0.857     0.289  90.00
       145     319.6985     67.06952  21.7929   0.2278  6.19    195.9624    255.7283     1.098     0.874  -1.84
       146     1037.724     62.54265  20.5146   0.0655  4.39     54.8488    261.4212     1.338     1.252  12.51
       147     155.0748     39.05787  22.5784   0.2735  7.92   1048.3064    255.3253     0.562     0.341 -46.00
       148     1108.611      67.3605  20.4428   0.0660  4.31   1847.9153    270.0767     1.416     1.399  64.30
       149     23961.75     71.30959  17.1060   0.0032  3.50   1858.7313    289.1194     1.877     1.782 -71.95
       150      110.546     27.96992  22.9459   0.2748  5.82   1632.6465    259.2979     0.570     0.336  42.37
       151     658.2091     90.20029  21.0089   0.1488  7.02    854.7265    269.1446     1.327     1.011 -49.54
       152     242.1593     32.49812  22.0945   0.1457  3.50    187.0305    269.7971     0.927     0.754 -83.08
       153     193.6699     43.33082  22.3371   0.2430  7.61   1366.5050    264.4965     0.503     0.497 -45.05
       154     179.7415      41.4861  22.4182   0.2507  7.11    961.9812    264.2191     0.699     0.414   0.74
       155      213.433     40.53227  22.2316   0.2062  8.19    124.6783    264.3419     0.576     0.334  45.89
       156     25233.48     70.48199  17.0498   0.0030  3.50    562.3620    296.0280     1.855     1.763  81.70
       157     470.7351     75.57057  21.3728   0.1743  6.85    741.9490    270.3398     1.288     0.772  29.71
       158     169.3813     42.87708  22.4826   0.2749  6.68    470.1956    265.5971     0.746     0.449 -19.40
       159     151.4351     37.52559  22.6042   0.2691  7.64    496.3147    269.6665     0.569     0.338  45.90
       160     10503.36     67.06952  18.0015   0.0069  3.50   1786.3577    295.4152     1.765     1.671 -69.97
       161     836.7849     96.68859  20.7482   0.1255  6.25    489.6555    281.6823     1.500     1.301 -52.94
       162     173153.8     80.09367  14.9587   0.0005  3.50   1873.6226    335.8639     2.105     1.966 -79.28
       163     1140.055     51.57399  20.4125   0.0491  3.50    162.4500    300.3802     1.426     1.269 -89.46
       164     567.3474     76.08642  21.1702   0.1456  8.78    636.4266    292.9638     1.225     0.494  27.01
       165     1166.188     113.7864  20.3879   0.1060  7.13    723.4673    311.1205     2.202     0.934  73.20
       166     309.9073     51.57399  21.8267   0.1807  9.19   1568.5303    293.4990     0.502     0.497  50.66
       167     752.4158        94.23  20.8636   0.1360  7.59    909.0809    304.1981     1.272     0.977  41.89
       168      104.087     21.66541  23.0113   0.2260  3.55   1209.5211    302.4635     0.503     0.495 -41.84
       169     186.6718     43.33082  22.3771   0.2521  7.32   1520.2551    305.9908     0.682     0.436  89.51
       170     621.7788     78.61489  21.0707   0.1373  6.62    882.9208    313.2552     1.206     0.943  78.41
       171     673.7081     84.14253  20.9836   0.1356  6.84   1364.5225    311.7054     1.372     0.911  -2.20
       172     269.4539     56.28838  21.9786   0.2269  6.43    330.8735    313.3693     0.912     0.685  66.74
       173     2507.367     56.63478  19.5567   0.0245  3.50    294.6448    325.2991     1.503     1.428 -83.93
       174     379.1877     59.66188  21.6076   0.1709  7.95   1278.9896    313.1972     0.947     0.471 -37.23
       175     152.4232     35.37946  22.5972   0.2521  5.49   1427.8091    311.4188     0.749     0.449 -20.04
       176     131.5068      29.9944  22.7574   0.2477  5.23   1686.5183    315.0497     0.787     0.316  57.55
       177     371.7214     51.19336  21.6292   0.1496  5.02    996.8655    328.4905     1.164     0.718  85.64
       178     3100.671     59.33317  19.3261   0.0208  3.50    472.5157    336.3662     1.572     1.511 -79.41
       179     4517.563     61.59737  18.9175   0.0148  3.60   1821.7045    343.5479     1.598     1.478  70.73
       180     2037.492     79.84911  19.7820   0.0426  4.98    708.0806    345.1245     1.590     1.343  77.95
       181     488.7532      58.6702  21.3321   0.1304  4.24   1093.2704    336.0067     1.555     0.991 -36.28
       182       177.25     45.95927  22.4333   0.2816  8.47    779.5115    328.5014     0.508     0.492 -45.24
       183     788.4713     81.30544  20.8128   0.1120  5.59    354.6207    340.4180     1.417     1.205  75.21
       184     1707.484      69.9248  19.9739   0.0445  4.38    845.8172    353.2963     1.519     1.365  73.05
       185     348.1514     49.24613  21.7004   0.1536  4.66   1421.7678    344.0681     1.131     0.791  33.75
       186     249.7238     51.19336  22.0611   0.2226  5.19   1492.8530    345.3970     1.091     0.724 -12.43
       187      311.772     40.53227  21.8202   0.1412  4.07    296.7245    345.8222     0.957     0.840  27.24
       188      1247.05     130.8921  20.3151   0.1140  7.06   1959.3707    357.4839     1.936     1.447   2.70
       189      716.151     73.47098  20.9173   0.1114  5.02   1358.7882    358.1906     1.568     1.111  75.12
       190     1483.941     54.52342  20.1262   0.0399  3.59    263.0894    358.0377     1.432     1.363  42.16
       191     372.3435     65.59528  21.6274   0.1913  6.62    955.6389    350.1186     1.031     0.765  -9.62
       192      1687.04      83.4423  19.9870   0.0537  3.76   1197.3593    369.6548     2.738     1.495 -48.51
       193      842.422     98.29349  20.7410   0.1267  7.60   1378.0286    361.9645     1.412     0.983  57.08
       194     465.1331     74.79013  21.3858   0.1746  6.89   1917.0913    360.7633     1.173     0.833  -6.57
       195     1514.522      105.027  20.1041   0.0753  7.32   2045.9869    377.5959     2.059     1.212 -84.90
       196     864.0057     89.76559  20.7135   0.1128  6.70    396.9513    367.2488     1.504     0.993  39.82
       197     184.3502      41.4861  22.3907   0.2444  8.53   1475.6711    359.3139     0.567     0.339  44.26
       198     1698.438     81.30544  19.9797   0.0520  5.04   1510.5970    385.9603     1.622     1.330 -50.96
       199     183.6072     39.55544  22.3951   0.2340  8.00    342.6891    363.3643     0.580     0.331  47.18
       200     3473.142     63.16498  19.2030   0.0198  3.74   1706.3151    384.3403     1.591     1.457  77.23
       201     164.1903     45.10015  22.5164   0.2983  6.51    684.9832    366.5107     0.779     0.500  -0.04
       202     1495.157     60.95903  20.1181   0.0443  4.09     95.2738    382.2393     1.390     1.287  71.10
       203     257.1803     45.10015  22.0292   0.1904  7.17      2.7779    373.7639     0.924     0.458  45.34
       204     113.8185     33.68025  22.9142   0.3214  7.07   1649.3417    372.6665     0.581     0.331  44.67
       205     445860.9     150.6227  13.9318   0.0004  3.50    883.2432    570.1421     4.058     3.728 -37.61
       206      636.734     68.22598  21.0449   0.1164  5.49    892.9085    381.3128     1.214     1.026 -23.38
       207     256.4869     49.64169  22.0321   0.2102  5.41   1587.4590    375.9488     1.033     0.652 -30.11
       208      288.234     51.57399  21.9054   0.1943  6.16   1740.1559    378.8687     0.830     0.669  44.28
       209     188.7025      41.4861  22.3653   0.2388  5.14    391.1731    382.9280     0.853     0.655  49.47
       210     830.9153     70.48199  20.7559   0.0921  3.80   1873.6116    397.9797     2.075     1.333  44.04
       211     147.0568     39.05787  22.6361   0.2884  5.86    369.6103    387.7897     0.752     0.447  71.23
       212     1145.107     61.59737  20.4077   0.0584  3.68    647.0750    403.9113     1.588     1.412 -41.12
       213     413.0009     60.95903  21.5149   0.1603  5.80   1753.4565    402.8524     1.047     0.875  13.94
       214     145.4623     37.52559  22.6479   0.2802  7.70    481.6546    398.3185     0.576     0.334  43.82
       215     1180.062     57.99967  20.3750   0.0534  3.87    416.8240    412.0852     1.385     1.298  40.33
       216     423.1779     69.08061  21.4885   0.1773  5.46    957.3358    409.3498     1.326     0.971 -63.94
       217     10875.48     66.77728  17.9637   0.0067  3.50   1489.7595    428.6713     1.757     1.664 -69.48
       218     490.9307     72.93664  21.3272   0.1613  6.75    852.6235    413.0681     1.139     0.851 -50.99
       219     748.4321     90.41686  20.8694   0.1312  6.89   1596.5056    414.0297     1.399     1.008 -48.99
       220     399421.4     165.7085  14.0512   0.0005  3.50    546.3373    604.2487     4.338     4.202  -2.08
       221     549.5897     53.80122  21.2047   0.1063  4.15    678.8345    417.1148     1.278     1.080 -60.58
       222     634.0918     62.85458  21.0494   0.1077  5.04    422.9319    416.8552     1.162     1.102 -88.31
       223     801.4178     70.20395  20.7951   0.0951  4.90    761.0203    423.1192     1.419     1.216 -85.25
       224      1755.74     84.14253  19.9436   0.0520  3.50    243.3469    431.6161     2.352     2.018 -40.79
       225     1032.238     84.37465  20.5203   0.0888  4.89   1862.2369    429.5782     1.962     1.221 -59.67
       226     3751.871      59.9888  19.1192   0.0174  3.50    732.4590    434.1948     1.631     1.475  78.96
       227     263.4247     62.85458  22.0031   0.2591  7.01    668.9047    422.5785     1.115     0.561 -56.11
       228     565.0702     63.78124  21.1745   0.1226  5.07   1848.7784    426.8137     1.281     1.019 -51.26
       229     956.0016     86.66164  20.6036   0.0984  5.32   1802.0096    432.4393     1.490     1.427  82.64
       230     1961.126     99.08619  19.8235   0.0549  4.57   1141.3611    439.6530     2.260     1.693   5.44
       231     494.1455      67.3605  21.3201   0.1480  5.79    681.4941    432.4922     1.093     1.023  42.94
       232     713849.2     277.7344  13.4208   0.0004  3.50    309.9877    742.3661     7.546     6.786 -42.08
       233     15794.94     68.22598  17.5585   0.0047  3.50   1536.8527    456.1935     1.788     1.710 -70.44
       234     586.2948      41.4861  21.1345   0.0768  3.50    116.7650    438.0333     1.136     1.050 -74.35
       235     353.8462     55.58912  21.6827   0.1706  7.70    916.7700    436.8066     0.762     0.555  50.58
       236     61593.89     75.57057  16.0809   0.0013  3.50    254.6753    476.3319     1.939     1.929 -59.57
       237     171.9044     43.33082  22.4666   0.2737  6.38    406.1838    443.6289     0.995     0.380  85.36
       238     128.7155     32.49812  22.7807   0.2742  6.77    931.3240    438.6883     0.564     0.340  44.37
       239     540.0001     74.26528  21.2238   0.1494  8.44    753.3983    448.0284     1.172     0.548 -61.73
       240     920.1904      72.1277  20.6451   0.0851  3.98   1096.2235    461.0846     1.874     1.413 -34.45
       241       867.33     87.55971  20.7093   0.1096  6.02    203.2383    455.6553     1.475     1.144   5.51
       242     603.8701     45.53173  21.1024   0.0819  3.74   1712.6711    458.1732     1.105     1.095  -4.68
       243     419.4451     62.85458  21.4981   0.1627  6.86    276.8050    453.0695     0.892     0.766   0.30
       244      322.678     57.66147  21.7829   0.1941  7.34    825.0133    453.9687     0.930     0.522  45.04
       245     603.9576      83.4423  21.1023   0.1500  5.98     38.9919    467.2834     1.429     1.091  51.48
       246     227.0521     55.58912  22.1645   0.2659  6.54   1996.8940    467.0872     1.165     0.507 -50.98
       247     279.7894     54.88095  21.9377   0.2130  5.82    863.6669    467.7798     1.106     0.664  17.86
       248       334.98     54.88095  21.7422   0.1779  5.08   1863.8687    474.5267     1.111     0.846  44.50
       249     203.4769     43.77985  22.2835   0.2337  7.75   1408.5334    472.5251     0.511     0.487  45.59
       250     1530.543     76.08642  20.0927   0.0540  4.81    215.0856    975.1151     1.478     1.412 -85.16
       251     443.9852      59.9888  21.4364   0.1467  6.59   1095.2323   1487.9708     1.209     0.847  15.63
       252     19224.84      58.6702  17.3451   0.0033  3.50   1074.1844   1486.9052     1.890     1.506  -2.91
       253     698.2726     44.66439  20.9447   0.0695  4.05     10.8588   1488.0552     1.499     0.891   4.55
       254     261.8124     51.57399  22.0098   0.2139  8.43    185.0088   1487.6639     0.815     0.472   0.38
       255     273.1904     50.80989  21.9636   0.2020  5.84   1115.0017   1484.4955     1.017     0.606 -43.91
       256     1207.886     91.06347  20.3497   0.0819  5.85     76.9610   1464.7091     1.636     1.213  39.56
       257     609.0479     61.27903  21.0932   0.1093  5.09   1418.7271   1462.4574     1.183     0.992   3.18
       258     676.2676     77.61339  20.9795   0.1246  5.89   1008.6933   1461.6494     1.353     1.041   8.30
       259     1016.692     70.75893  20.5368   0.0756  4.33   1220.2404   1274.6906     1.580     1.388 -76.60
       260     6544.197     64.69462  18.5151   0.0107  3.50   1055.1833   1197.2538     1.683     1.660  42.03
       261     566603.6     98.69064  13.6716   0.0002  3.50   1383.9728    901.9692     2.624     2.476 -62.37
       262     389.4203     70.20395  21.5787   0.1958  6.95    251.3208    908.4827     1.093     0.775 -12.82
       263     406.6428     67.65022  21.5317   0.1807  8.16    343.5346    907.5067     1.116     0.500  -0.69
       264     6927.729     158.9617  18.4533   0.0249  4.54   1954.1074    908.7476     3.224     3.105 -28.84
       265     1137.867     57.32129  20.4146   0.0547  3.86    296.7081    903.4639     1.353     1.337 -56.38
       266     18725.23     70.48199  17.3737   0.0041  3.50   1899.2083    907.8177     1.822     1.798  55.07
       267     15299.85     69.08061  17.5931   0.0049  3.50   1444.8932    897.5106     1.789     1.754  60.58
       268     822.7517     61.64475  20.7666   0.0814  4.83   1434.6995    895.1406     1.588     1.225  82.33
       269     849.4039      105.213  20.7320   0.1345  7.71   1987.6758    900.2681     1.487     1.020 -59.57
       270     957.2682     101.6198  20.6022   0.1153  6.83   1770.6115    899.8382     1.490     1.218  89.82
       271     81552.16     75.31133  15.7762   0.0010  3.50    459.9241    891.8398     1.969     1.958 -68.99
       272      183.818     47.21867  22.3938   0.2790  7.69    762.7430    894.9969     0.686     0.437 -89.84
       273      1737.64     111.8797  19.9549   0.0699  5.42    119.8363    891.4966     2.166     1.604  40.14
       274     2042.092     56.97906  19.7796   0.0303  3.50   1096.1307    889.8828     1.503     1.424 -55.42
       275     871.1837      103.148  20.7045   0.1286  7.79    138.9713    886.2736     1.552     0.920  24.30
       276     1530.416     83.20758  20.0928   0.0590  5.21   1403.1115    882.2880     1.509     1.374 -49.45
       277     241.2803     54.88095  22.0985   0.2470  6.07     66.8772    881.0320     1.064     0.637  88.54
       278     1509.611     78.50681  20.1076   0.0565  5.54    132.7366    874.1018     2.228     1.734  47.50
       279     4565.491     165.5905  18.9061   0.0394  4.83    137.3267    864.5106     3.892     2.448 -85.42
       280     152.0858     34.25602  22.5996   0.2446  7.12     23.3354    866.6789     0.573     0.336  44.35
       281     22803.85     70.48199  17.1598   0.0034  3.50   1550.1239    846.9026     1.820     1.799  49.38
       282     114.7482     21.66541  22.9054   0.2050  3.50   1746.5007    852.5526     0.501     0.496 -26.17
       283     227.0825     47.63106  22.1643   0.2278  7.37    475.3852    851.1932     0.758     0.449  72.13
       284     444.0135     71.58334  21.4363   0.1751  5.94   1343.1731    849.6943     1.561     0.753  16.39
       285     2123.879      97.0923  19.7370   0.0496  4.69   1466.9144    844.6645     1.951     1.800 -27.39
       286     392.2518     56.97906  21.5709   0.1578  5.09    554.5686    847.6559     1.071     0.947 -49.62
       287     190.1752     40.04684  22.3569   0.2287  7.99   1666.6459    847.6823     0.579     0.332 -43.48
       288      5535.62     65.89277  18.6969   0.0129  3.61   2040.7567    842.7574     1.692     1.598  76.55
       289     761.2971     49.24613  20.8509   0.0703  3.61    340.2467    844.1428     1.303     1.135 -27.96
       290     2670.504      108.327  19.4883   0.0441  4.37    249.6620    839.8503     2.453     2.028 -89.06
       291     503.6044     64.69462  21.2996   0.1395  4.94   1624.4539    838.7711     1.379     1.028 -71.68
       292     6232.396     145.0666  18.5681   0.0253  4.44   1594.6981    833.4778     4.084     2.129 -46.34
       293     863.5227     100.0682  20.7141   0.1258  6.41    918.4569    834.6562     1.745     1.143 -88.78
       294     406.6287     67.93871  21.5318   0.1814  5.43   1104.5242    834.3412     1.525     0.835  83.37
       295     469.6672     62.85458  21.3753   0.1453  5.80    303.4335    834.5577     1.128     0.876  27.28
       296     141.1433     34.25602  22.6806   0.2636  7.12   1903.6791    834.6625     0.574     0.335 -45.75
       297     190.4393     53.43646  22.3554   0.3047  7.26    756.0016    833.1707     0.950     0.471 -38.07
       298     165.5132     36.46832  22.5077   0.2393  7.48   1989.3281    831.6680     0.575     0.335  45.17
       299      598.208     63.78124  21.1126   0.1158  5.29   1110.3965    829.9577     1.164     1.026  65.55
       300     809.9518     83.67636  20.7836   0.1122  5.14    978.0032    826.1274     1.727     1.271  70.07
       301      990.927     115.9993  20.5647   0.1271  7.60     65.2478    826.2902     1.733     1.087  30.17
       302     1537.008     65.29644  20.0881   0.0461  4.12   1949.4301    821.7861     1.521     1.367  -8.42
       303      699.886      82.9722  20.9422   0.1287  7.63    458.2598    823.1013     1.108     0.870  43.25
       304     1469.824     75.82893  20.1366   0.0560  4.52    819.1380    821.0672     1.590     1.432   1.33
       305     227.7804     33.09446  22.1610   0.1578  3.50    615.1684    820.4863     1.049     0.716 -49.31
       306     185.1412     47.21867  22.3860   0.2770  6.27   1100.3638    812.8759     1.057     0.419  75.92
       307     870.0083     47.63106  20.7060   0.0595  3.50    679.5916    809.5428     1.285     1.251 -50.93
       308     410598.4      167.703  14.0212   0.0004  3.50     65.9230    777.5842     4.501     4.136 -23.87
       309     82240.04     76.59879  15.7671   0.0010  3.50   2024.2783    792.7416     1.987     1.953 -81.90
       310     3842.876     59.66188  19.0931   0.0169  3.50   1566.1333    797.2243     1.611     1.478  -1.35
       311     510.7939     89.54745  21.2842   0.1904  6.01   1090.2142   1437.4613     1.869     0.971  32.88
       312     189.1162     37.52559  22.3630   0.2155  7.67    482.3190    785.3433     0.575     0.334 -46.07
       313     2468.841     133.1145  19.5735   0.0586  6.06    116.1058    781.1980     2.445     1.619  14.13
       314      414.171     69.64455  21.5118   0.1826  6.74    928.4415    782.1547     1.264     0.697   9.90
       315     663.3284       91.492  21.0005   0.1498  7.39    574.4821    805.4067     1.339     0.915  84.20
       316     40892.08     76.08642  16.5257   0.0020  3.50    269.5443    770.6724     1.968     1.927 -66.35
       317     1165.425     76.34303  20.3886   0.0711  3.93    933.4902    803.4635     2.100     1.464 -46.28
       318     1176.501     105.5841  20.3783   0.0975  5.69   1963.0533    769.4420     1.877     1.511  74.43
       319     3184.902     56.63478  19.2970   0.0193  3.50   1355.4380    802.8671     1.492     1.463  -6.58
       320     520.6548     68.79691  21.2634   0.1435  5.89    907.6702    774.9103     1.070     1.033 -56.93
       321     684.0676     54.52342  20.9670   0.0866  4.29   1468.0077    764.4957     1.255     1.059 -81.99
       322     478.0247     70.20395  21.3562   0.1595  5.64   1115.2472    773.8545     1.296     0.968  37.48
       323     1627.675     81.54564  20.0259   0.0544  4.73    194.7734    763.6874     1.658     1.449 -78.94
       324     5445.585     63.16498  18.7147   0.0126  3.50    126.9268    762.1740     1.659     1.618  50.74
       325     782.9537     53.80122  20.8204   0.0746  3.75    151.1684    797.4926     1.325     1.256  74.04
       326     5006.147     60.95903  18.8060   0.0132  3.50   1048.1279    760.0399     1.626     1.510 -84.26
       327     979.1047     99.67658  20.5777   0.1106  6.28    201.5550    756.6411     1.710     1.195  71.59
       328     293.4789     54.88095  21.8858   0.2031  6.56   1441.7676    758.3906     0.926     0.631 -16.32
       329     475.4132     69.08061  21.3621   0.1578  8.19   1400.8402    802.1475     0.821     0.688  42.67
       330     699.9631     78.86328  20.9421   0.1224  5.66   1719.9586    755.1419     1.390     1.128 -79.54
       331     36436.03     71.58334  16.6510   0.0021  3.50   1280.7627    746.0203     1.862     1.831 -64.25
       332     1035.447     63.78124  20.5170   0.0669  4.53   1208.4584    749.1531     1.298     1.254 -25.62
       333     385.6866     60.31395  21.5892   0.1698  5.96   1101.8861    802.0872     1.091     0.732  -8.52
       334     501.7538     69.64455  21.3036   0.1507  6.87   1296.3572    747.2570     1.184     0.715  70.67
       335     706.8336     94.43733  20.9315   0.1451  7.81    386.6262    745.9947     1.462     0.827  29.84
       336     615.5387     51.19336  21.0816   0.0903  3.50   1482.4303    796.5569     1.582     1.065  43.33
       337     4277.296     64.08714  18.9769   0.0163  3.50    475.8239    798.4666     1.708     1.566 -76.58
       338     575.0934     67.93871  21.1554   0.1283  5.11    615.2471    741.5569     1.240     1.148  24.77
       339     3608.681     59.00262  19.1614   0.0178  3.51   1628.6971    737.0692     1.572     1.461 -73.66
       340     336.8577     60.31395  21.7362   0.1944  7.22    806.9134    739.1093     0.871     0.659  46.42
       341      11756.1     67.06952  17.8791   0.0062  3.50   1262.5706    792.7305     1.757     1.700  87.06
       342     647.9727     82.49942  21.0259   0.1383  8.59     67.6533    737.4819     1.148     0.661 -51.45
       343     386.6851      67.3605  21.5864   0.1892  7.78    531.2722    796.5405     1.148     0.533  68.74
       344     325.7573     60.63735  21.7725   0.2022  7.98   1179.8384    791.8904     1.340     0.351  85.05
       345     1356.604     57.99967  20.2236   0.0464  3.50   1098.9652    725.5264     1.524     1.434  45.78
       346     971.6655     56.63478  20.5860   0.0633  3.90    687.4048    724.3502     1.410     1.238  58.41
       347     1953.309     59.00262  19.8279   0.0328  3.68    943.2156    788.6992     1.484     1.388 -73.31
       348     867.5417     47.21867  20.7091   0.0591  3.50   1581.5197    721.4879     1.363     1.184  40.74
       349     919.5684     99.08619  20.6458   0.1170  6.82    535.8018    720.5375     1.409     1.208 -41.59
       350     135.3766     35.92802  22.7259   0.2882  5.60    605.7949    718.4053     0.758     0.443 -20.08
       351      377.032     54.16352  21.6138   0.1560  5.51    650.2047    789.2964     0.976     0.831  67.83
       352     161.9178     30.63951  22.5315   0.2055  4.19    409.4773    708.0305     0.813     0.499 -89.53
       353     175.5165     34.25602  22.4440   0.2120  4.26   1527.1572    705.8728     0.833     0.660  45.56
       354     1175.552     76.08642  20.3792   0.0703  4.47   1781.0238    701.8222     1.731     1.359 -40.72
       355     2135.527      58.3359  19.7310   0.0297  3.50   1748.7657    699.4596     1.539     1.454  11.85
       356     1132.782       91.492  20.4194   0.0877  5.63    769.0318    785.3460     1.564     1.382   3.16
       357     459.5084     53.15621  21.3990   0.1256  6.64    508.0083    699.4808     1.277     1.042  -4.81
       358     912.5834     104.8406  20.6541   0.1248  6.06    511.8879    696.1176     1.729     1.405   4.50
       359     271.1326     56.28838  21.9718   0.2255  6.55    132.4941    693.7723     1.374     0.449 -40.17
       360     617.1989     64.08714  21.0787   0.1128  4.72    682.8486    691.9260     1.270     1.216  51.16
       361      7835.15     68.79691  18.3197   0.0095  3.57    783.8785    687.8798     1.775     1.682  83.07
       362     522.6127     65.89277  21.2593   0.1369  4.85   1797.4894    689.5312     1.421     1.066 -14.35
       363     446.2878     45.53173  21.4307   0.1108  3.78    604.7504    684.8990     1.204     0.969  88.05
       364     291.2469     57.32129  21.8941   0.2137  7.05    575.6541    684.1769     0.883     0.605  -9.60
       365      201.804     45.53173  22.2925   0.2450  6.32    464.8431    678.8491     0.756     0.560  51.03
       366     625.2405     84.60612  21.0647   0.1470  7.53   1634.2771    677.0154     1.224     0.839  82.94
       367     352.3851     53.80122  21.6872   0.1658  4.75   1788.2882    676.4659     1.257     0.824  30.64
       368     540.4779     75.57057  21.2228   0.1518  6.17    502.8428    675.3099     1.273     0.952  -6.66
       369     262.7214     50.80989  22.0060   0.2100  9.08   1266.4821    673.5087     0.501     0.498 -47.32
       370     394.7332     50.03412  21.5640   0.1377  4.71   1332.6421    668.9172     1.018     0.883 -14.41
       371     411.8455     78.61489  21.5179   0.2073  6.45   1317.9816    667.3419     1.336     0.908 -34.84
       372      2581.98     57.99967  19.5249   0.0244  3.54   1414.3634    660.8918     1.506     1.424  66.69
       373     4471.167     110.8259  18.9287   0.0269  4.42     64.9762    659.6271     2.553     1.969  11.09
       374     1063.723     65.59528  20.4877   0.0670  3.67   1094.0941    659.7964     1.958     1.332  12.66
       375     3051.358     59.00262  19.3435   0.0210  3.50   1147.5593    656.6529     1.557     1.527  33.15
       376     356.5526     49.24613  21.6745   0.1500  4.50   1155.1127    650.8243     1.286     0.747  83.06
       377     886.0702     98.09431  20.6861   0.1202  6.20    530.6528    648.9679     1.567     1.290  74.07
       378     107.2095     32.49812  22.9792   0.3292  6.53   1294.3130    649.3076     0.557     0.343 -44.70
       379     2183.128     62.54265  19.7071   0.0311  3.75   1529.5319    643.9822     1.536     1.424  18.89
       380     772.7736     77.36098  20.8347   0.1087  4.43    223.5090    641.4269     2.224     1.094 -58.85
       381     2087.738     95.26212  19.7556   0.0496  4.16     62.0057    640.5010     2.433     1.752  -7.22
       382     179.0066     36.46832  22.4226   0.2212  4.92   1839.0822    638.6810     1.073     0.420  11.80
       383     308193.9     80.09367  14.3327   0.0003  3.50   1496.7908    621.0814     2.106     2.042 -60.20
       384      3216.89     57.99967  19.2862   0.0196  3.50    719.6070    631.4232     1.512     1.476  59.50
       385       332.05     64.99623  21.7518   0.2126  6.14   1973.2178   1385.9456     0.970     0.946 -89.03
       386      212.967      29.9944  22.2340   0.1530  3.50    954.5176    617.8443     0.899     0.669  37.29
       387     13639.62     185.8728  17.7178   0.0148  5.45    515.6739    588.6033     5.044     3.487 -78.81
       388     390.0044      72.1277  21.5771   0.2008  7.03   1449.9126    611.3355     1.030     0.825  52.31
       389     4043.592      147.606  19.0379   0.0396  4.63    612.1100    601.9459     3.980     2.061  60.11
       390     268.1736      53.0692  21.9837   0.2149  6.59   1537.6655    609.1462     0.874     0.598  58.73
       391     175.7949     37.00073  22.4423   0.2286  5.75   1312.4056    608.1813     0.743     0.451  70.89
       392     604.1976     79.84911  21.1018   0.1435  5.61    329.7262    607.5947     1.893     0.877  -7.51
       393     498.9434     46.80263  21.3097   0.1019  4.00    681.4517    621.3207     1.100     1.005 -84.93
       394     1804.292     124.1436  19.9140   0.0747  5.46   1543.8500    628.2124     2.261     1.854  89.13
       395     2920.486     93.60526  19.3911   0.0348  3.50   1836.8785    599.3469     2.648     2.165 -27.72
       396     831.8792     76.59879  20.7546   0.1000  4.53   1323.3213    600.4128     1.755     1.296 -35.05
       397     454.3447     74.26528  21.4113   0.1775  5.16    856.3865   1381.6946     1.540     1.116  60.69
       398     283.9392      50.4235  21.9217   0.1929  4.65    835.7344    583.1681     1.321     0.725 -58.46
       399     2662.543     59.66188  19.4915   0.0243  3.50   1632.3521    627.1642     1.564     1.486  88.07
       400     207.8406     33.09446  22.2605   0.1729  4.36   1013.4492    624.3489     1.085     0.443 -34.70
       401      90765.2     74.79013  15.6600   0.0009  3.50   1082.3079    568.4687     1.975     1.901 -76.51
       402     831.7051     74.52817  20.7549   0.0973  5.35    578.2115    574.3279     1.327     1.190  11.37
       403      1100.96     88.66951  20.4504   0.0875  5.31    491.9037    572.0139     1.575     1.449  72.63
       404     1074.573     78.36572  20.4767   0.0792  5.53    586.8943    596.0669     1.317     1.233 -61.29
       405       251609     80.82291  14.5530   0.0003  3.50   1759.1218    558.8999     2.144     2.002 -86.40
       406     404.6062     60.63735  21.5372   0.1628  4.97   1415.5542    593.9507     1.276     0.943 -80.01
       407      253.873     48.84737  22.0432   0.2090  5.57   1581.6373    570.0718     0.913     0.684  21.72
       408     226.9252     40.53227  22.1651   0.1940  7.97   1566.6769    569.3273     0.570     0.337  45.19
       409     250.0364     45.10015  22.0598   0.1959  8.16    490.4617    601.4727     0.510     0.487 -45.91
       410     2533.861     57.32129  19.5453   0.0246  3.50   1652.2384    563.2668     1.521     1.437 -88.32
       411     1070.031     102.7681  20.4813   0.1043  8.15    517.4706    619.9500     1.648     0.788 -29.54
       412     142.0673     35.92802  22.6735   0.2746  6.80    108.9715    560.0000     0.867     0.289   0.00
       413     423.6394     66.77728  21.4873   0.1712  6.28   1939.0840    556.6886     1.191     0.783  79.77
       414     556.5859     76.85369  21.1910   0.1500  7.96   1936.1631    589.3134     1.080     0.690 -37.93
       415     5755.221     101.8121  18.6546   0.0192  3.83   1693.5433    587.0591     2.479     2.292 -77.14
       416     556.2302     79.11089  21.1916   0.1545  6.51    294.3832    554.0786     1.359     0.878  66.55
       417     2004.063     124.1436  19.8000   0.0673  6.16   1976.0728    548.3327     2.139     1.550  52.10
       418     326.2528     61.59737  21.7709   0.2050  6.27   1392.5438    597.6592     0.947     0.823 -23.11
       419     259.6836     45.10015  22.0187   0.1886  5.08      3.6832    550.1031     1.220     0.646  24.66
       420     2094.642     64.69462  19.7520   0.0335  3.90    189.1976    546.6271     1.577     1.376  87.20
       421     1184.261     66.18892  20.3712   0.0607  4.23   1521.5017    541.5827     1.514     1.328 -66.30
       422     1139.111     113.2696  20.4134   0.1080  5.14    623.9872    538.6405     2.243     1.741  62.64
       423     225.0864     33.68025  22.1739   0.1625  3.50   1625.6914    540.6843     1.224     0.620   1.67
       424      507.682     74.79013  21.2908   0.1600  7.56    507.2748    540.6646     1.468     0.545 -41.21
       425     188.3975     40.53227  22.3671   0.2336  8.51   2033.9973    540.3316     0.919     0.210  28.13
       426     985.9646     69.36315  20.5701   0.0764  4.38   1645.0503    535.6751     1.576     1.265  36.13
       427     6985.354     64.08714  18.4443   0.0100  3.50    290.3786    533.0974     1.719     1.612 -80.92
       428      138.932     33.68025  22.6978   0.2633  6.12    693.0000    535.0286     0.875     0.289  90.00
       429     346.4144     55.23617  21.7058   0.1732  5.34   1798.9026    533.4761     0.989     0.888  79.82
       430     676.5454      67.3605  20.9790   0.1081  5.40   1052.8394    532.8289     1.158     1.088 -84.42
       431      743.689     86.43566  20.8763   0.1262  5.61    857.4479    532.7427     1.659     1.178 -36.17
       432     1951.782     151.1411  19.8287   0.0841  7.25    273.9409    526.1502     2.957     1.197  88.49
       433     2417.286      58.6702  19.5965   0.0264  3.69    250.5781    621.4937     1.491     1.428  61.67
       434       6794.7     129.6912  18.4744   0.0207  3.56   1314.6228    522.7135     4.268     2.526   1.88
       435     451.4785     67.93871  21.4182   0.1634  6.06    260.7639    525.7426     1.170     0.867  53.57
       436     147.1714     41.95488  22.6352   0.3096  7.73   1128.0000    525.9880     0.846     0.289  90.00
       437     843.0779     47.63106  20.7401   0.0614  3.50   1007.2003    526.1630     1.349     1.153  76.52
       438     203.1189     48.44533  22.2854   0.2590  6.98   1246.5035    521.9870     0.810     0.500 -88.24
       439     197.8031     30.63951  22.3142   0.1682  3.50   1590.0422    520.7074     1.010     0.633  54.77
       440     193.7531     31.27132  22.3367   0.1753  3.50    945.8856    520.0105     1.037     0.612  88.35
       441       519.71     72.39835  21.2654   0.1513  5.50    396.1662    518.7725     1.347     1.048 -56.35
       442     271.0391     54.52342  21.9722   0.2185  5.62   1904.8867    514.6954     1.016     0.761  82.60
       443     1279.355     66.77728  20.2873   0.0567  3.52   1362.8972    510.3755     2.031     1.421 -58.95
       444     319.7432      53.0692  21.7928   0.1802  7.31    276.8227    514.1923     0.767     0.565 -43.00
       445     3269.408     86.43566  19.2686   0.0287  3.50   1747.9512    506.9413     2.808     1.763 -85.52
       446     197.6893     41.95488  22.3148   0.2305  8.56   1204.6816    508.2901     0.551     0.345  43.29
       447     195.2473     45.10015  22.3283   0.2509  8.22   1943.5078    507.0023     0.803     0.311  58.08
       448     138.7648      26.5346  22.6991   0.2077  3.50   1624.2030    505.1143     0.750     0.562  46.36
       449     407.4813     59.33317  21.5295   0.1581  6.64   1975.9979    501.5038     1.012     0.666 -62.89
       450     307.9777     35.37946  21.8335   0.1248  3.50   1320.3223    500.7779     0.956     0.858 -14.36
       451     129.6266     33.68025  22.7730   0.2822  7.20    543.3665    495.2811     0.567     0.336 -40.84
       452     492.3271     75.57057  21.3241   0.1667  5.96    528.3224    493.1146     1.579     0.806  57.82
       453     197.0177     43.77985  22.3185   0.2413  6.84   1804.7678    493.3953     0.745     0.451 -18.49
       454     197.8031     47.63106  22.3142   0.2615  6.23    554.3484    491.1331     1.072     0.417 -76.50
       455     227.1287     35.92802  22.1641   0.1718  3.53   1358.0776    490.9742     1.064     0.755  48.11
       456     182.6091     37.52559  22.4010   0.2232  7.69    880.6906    485.6524     0.573     0.335 -46.74
       457     430.0293     60.95903  21.4710   0.1539  5.00   1374.2797    482.7542     1.189     1.034  40.51
       458     1299.168     70.20395  20.2706   0.0587  4.21     47.3634   1444.3547     1.612     1.388  -3.45
       459      377.429      41.4861  21.6127   0.1194  3.50   1090.6329   1478.4851     1.330     0.911 -67.16
       460     3284.075     60.31395  19.2637   0.0199  3.50   1145.3591   1471.1533     1.606     1.505   2.02
       461     1832.917     81.30544  19.8969   0.0482  3.66   1732.6040   1465.1858     2.413     1.687  24.33
       462     3735.063     139.8496  19.1240   0.0407  4.63    836.6580   1464.9772     3.239     2.279 -76.41
       463     239.4401     48.03992  22.1068   0.2179  7.43    204.8076   1475.3823     0.762     0.441 -19.16
       464      214.481     51.57399  22.2263   0.2611  6.57    624.8443   1457.6825     0.754     0.650 -68.17
       465     138.0267     32.49812  22.7049   0.2557  6.81   1602.6957   1429.3328     0.564     0.340  46.46
       466     330.4224     59.66188  21.7571   0.1961  7.94    863.9976   1453.9739     0.899     0.531  45.27
       467     584.6824     81.06454  21.1375   0.1506  5.79     13.9544   1457.7042     1.604     0.979   9.69
       468     284.4706      58.6702  21.9197   0.2240  7.22    822.4290   1462.1711     0.864     0.623  13.35
       469     175.2687     45.53173  22.4455   0.2821  5.31   1211.6672   1450.1235     0.893     0.699  19.74
       470     19706.61     74.52817  17.3183   0.0041  3.50     96.7998   1446.5693     1.970     1.870   4.38
       471     175.4443     43.77985  22.4444   0.2710  6.92   2017.5829   1423.2209     0.766     0.442 -69.49
       472     668.4315     73.20429  20.9921   0.1189  5.59   1884.3225   1434.9784     1.312     1.056 -31.88
       473     1083.935     102.1955  20.4673   0.1024  5.54   1843.8029   1437.8689     1.761     1.578 -78.92
       474     283.5944     57.32129  21.9230   0.2195  6.15    682.7376   1277.5562     0.983     0.716 -88.02
       475     255.3315     51.95182  22.0370   0.2210  6.78   1736.4257   1443.7389     1.008     0.481  82.56
       476     1691.886     73.20429  19.9839   0.0470  4.52    332.1324   1424.5807     1.559     1.402  -1.35
       477     52919.69     74.79013  16.2457   0.0015  3.50   1943.1500   1423.4154     1.947     1.906 -11.84
       478     221.3269     46.80263  22.1922   0.2296  5.78   1246.6996   1284.1663     0.871     0.605  60.81
       479     425.1682     53.43646  21.4834   0.1365  4.76    575.4012   1413.5928     1.062     0.932  41.83
       480     659.0613     65.29644  21.0075   0.1076  4.67    765.4105   1435.9822     1.333     1.188  15.68
       481     195.2944     45.95927  22.3281   0.2556  7.51    298.9787   1281.7185     1.044     0.297  50.22
       482     9221.235     65.59528  18.1428   0.0077  3.50   1978.4106   1426.0511     1.777     1.649  17.22
       483     206.2128     47.63106  22.2690   0.2508  8.63   1109.5071   1285.5115     0.501     0.498 -44.27
       484     1273.838     106.6898  20.2920   0.0910  6.26   1197.0983   1422.8202     1.644     1.423 -43.84
       485     218.2881     52.32693  22.2072   0.2603  6.40    736.1198   1287.0825     0.828     0.675 -47.95
       486     739.3379     75.31133  20.8827   0.1106  4.87   1142.3677   1283.4214     1.613     1.231  29.86
       487     492.3488     80.09367  21.3241   0.1767  7.86    225.6094   1386.7114     1.046     0.804  31.69
       488     151.8362     41.95488  22.6013   0.3001  8.60    687.9958   1387.3257     0.907     0.212 -28.30
       489     1413.523     94.43733  20.1790   0.0726  5.37    832.3687   1402.0786     1.687     1.492   7.94
       490      1541.03     114.9833  20.0853   0.0810  4.89   1318.1010   1395.7573     3.062     1.460  47.87
       491     348.9084     65.89277  21.6980   0.2051  7.02     57.4891   1401.9756     1.063     0.662  26.13
       492     161.2991     33.09446  22.5357   0.2228  5.29    264.6245   1407.2601     0.732     0.457 -73.65
       493     510.1423     45.53173  21.2856   0.0969  3.50   1567.2444   1391.8485     1.267     1.094   9.85
       494     3207.354     64.08714  19.2894   0.0217  3.71   1200.6324   1403.6729     1.588     1.514   2.00
       495     115.2489     35.37946  22.9007   0.3334  7.44    307.6349   1371.6896     0.580     0.331 -42.76
       496     692.0712     55.58912  20.9544   0.0872  3.53   1172.3091   1394.3314     1.811     1.111  30.69
       497     3067.426     100.0682  19.3378   0.0354  4.40   1233.4043   1372.6488     2.320     1.837 -21.16
       498      341.907     50.80989  21.7200   0.1614  5.04   1841.9011   1378.0073     1.319     0.636  71.88
       499     247.3556     34.25602  22.0715   0.1504  3.89    910.5067   1388.9640     1.010     0.668  28.19
       500     856.7878     66.48375  20.7226   0.0843  4.69    703.0180   1382.9066     1.318     1.225  83.27
       501     1793.272     83.67636  19.9207   0.0507  3.60   1491.5574   1362.7996     2.873     1.519  72.12
       502     301.3459     60.31395  21.8571   0.2174  8.52   1136.1914   1387.2173     0.922     0.440  45.67
       503     663.3722     68.51204  21.0004   0.1122  5.43    243.1369   1378.1823     1.184     1.086 -11.62
       504     639.1204     83.67636  21.0408   0.1422  6.79     96.6683   1380.7079     1.184     1.043  -7.01
       505      543.512     49.24613  21.2168   0.0984  3.50   1184.7407   1285.8525     1.420     1.116  30.82
       506      596.504     80.82291  21.1157   0.1471  6.23   1176.6108   1382.5972     1.331     1.041  13.09
       507     423.0049     67.93871  21.4889   0.1744  8.33   1146.5778   1370.4879     1.089     0.500   0.01
       508     559.5789     76.08642  21.1851   0.1477  6.67    322.3924   1360.1554     1.191     0.907  37.39
       509     1509.171      100.847  20.1079   0.0726  5.04   1774.8864   1361.2897     2.037     1.597 -32.47
       510        146.9     40.04684  22.6372   0.2961  6.09    306.8033   1368.6033     0.776     0.445  18.63
       511      808.196     82.02392  20.7860   0.1102  5.24    416.3448   1362.6476     1.534     1.282  -8.47
       512     129.2144     35.37946  22.7765   0.2974  6.86   1675.4977   1356.4832     0.502     0.498  42.96
       513     425.8489     62.85458  21.4816   0.1603  6.54   1149.9143   1292.4087     1.020     0.739 -71.77
       514     305.3549     53.80122  21.8428   0.1913  6.13   1917.3287   1287.8756     0.909     0.690  22.78
       515     2223.789     148.3988  19.6870   0.0725  6.45    908.2305   1363.3455     2.653     1.624  88.04
       516     2042.195     136.3085  19.7795   0.0725  6.24    335.0818   1345.8468     2.179     1.786   3.50
       517     331.9878     64.08714  21.7520   0.2096  6.28    432.4785   1357.2051     1.019     0.832  37.45
       518     1774.127     55.23617  19.9323   0.0338  3.50   1671.5610   1282.9697     1.499     1.389  29.48
       519     1541.113     110.6492  20.0852   0.0780  5.65    754.8928   1334.8995     1.839     1.710  30.13
       520     584.4308     51.19336  21.1379   0.0951  4.13    406.5026   1325.5820     1.269     1.014   7.70
       521     3161.027     92.76574  19.3052   0.0319  3.62    540.1866   1342.6849     2.790     1.921  34.90
       522     4108.967      71.0348  19.0204   0.0188  3.97    501.2758   1299.1901     1.632     1.572  37.71
       523     164.8434     39.05787  22.5121   0.2573  7.88   1150.3325   1346.6704     0.575     0.334  44.87
       524          774     79.35773  20.8329   0.1113  6.01   1717.5381   1339.4177     1.397     1.013   2.16
       525     499.3346     80.82291  21.3088   0.1758  6.79    200.1274   1326.2462     1.369     0.837  59.62
       526     120.5432     33.68025  22.8519   0.3034  5.70    722.7664   1337.0087     0.692     0.423  89.61
       527      4456.08      210.519  18.9324   0.0513  5.72    693.5496   1323.8098     3.572     3.078  50.62
       528     2244.065     113.0968  19.6772   0.0547  4.92     24.0172   1330.5728     2.192     1.963  68.99
       529     283.8323     51.95182  21.9221   0.1988  7.85    750.2209   1309.6018     0.780     0.443 -18.86
       530     800.7568     88.44866  20.7960   0.1200  6.85   1091.2189   1308.9083     1.227     1.082   5.60
       531     1320.482     98.27377  20.2529   0.0808  7.75     78.8099   1307.5765     2.099     1.740 -40.65
       532     1194.656     121.4359  20.3617   0.1104  7.00    290.7180   1301.0909     2.093     1.180 -69.98
       533     275.5275     50.80989  21.9544   0.2003  7.86    259.1903   1318.3771     0.774     0.438  18.91
       534     996.7125     95.67186  20.5584   0.1042  5.91   1376.5684   1310.6531     1.702     1.240 -25.13
       535     590.3744      72.1277  21.1270   0.1327  5.55   1168.1692   1310.7493     1.342     1.036  39.89
       536     505.0795     72.66799  21.2964   0.1562  5.73    983.1468   1320.7534     1.502     0.890  44.68
       537     315.7686     52.32693  21.8064   0.1800  5.01   1808.3553   1310.3986     1.462     0.599 -84.63
       538     1852.382     77.10776  19.8855   0.0452  4.76   1317.7806   1299.4198     1.575     1.364  58.94
       539     2978.123     66.77728  19.3699   0.0244  3.66    798.8522   1309.4922     1.694     1.607  41.80
       540     556.9164     72.39835  21.1903   0.1412  5.75   1069.1823   1295.8743     1.196     1.079  69.34
       541      79561.6     81.54564  15.8030   0.0011  3.50   1865.4028   1266.9186     2.160     2.005 -70.53
       542     120.7401     30.63951  22.8502   0.2756  5.65    820.4706   1281.4861     0.506     0.493  46.46
       543     39495.95     76.59879  16.5634   0.0021  3.50     90.6914   1298.0912     2.035     1.911  20.30
       544     1575.917     105.3987  20.0609   0.0726  5.56    933.0851   1296.3387     1.892     1.560 -72.17
       545     704.6791     82.26201  20.9348   0.1268  8.60     77.3024   1262.7897     1.107     0.673 -18.56
       546     222.0245     51.95182  22.1888   0.2541  6.88   1789.7147   1282.4258     0.997     0.473   9.43
       547     5337.981     63.78124  18.7363   0.0130  3.50   1542.1091   1272.8008     1.705     1.588  18.60
       548     1526.193      72.1277  20.0958   0.0513  4.37    136.8403   1261.3179     1.620     1.352   1.23
       549     888.5461     77.36098  20.6831   0.0946  5.26    520.8858   1204.5242     1.497     1.149 -35.68
       550     1432.952     59.66188  20.1642   0.0452  3.64    201.0872   1268.4229     1.589     1.380 -16.62
       551     1564.098     59.33317  20.0691   0.0412  3.50    267.6858   1270.7004     1.673     1.402  27.94
       552     654.3245     84.37465  21.0153   0.1400  6.89   1161.5522   1278.4877     1.163     1.037 -74.05
       553     416.3008     67.93871  21.5063   0.1772  6.07    329.5014   1197.4918     1.229     0.821  36.41
       554     1452.726     113.6144  20.1493   0.0849  6.51     60.2472   1268.2501     1.749     1.417  44.89
       555     500943.8     112.9237  13.8053   0.0002  3.50    302.4638   1239.1635     3.032     2.827 -22.61
       556     290.9192     56.28838  21.8953   0.2101  5.98    147.0201   1221.3828     1.062     0.656 -62.72
       557     1412.414     88.44866  20.1799   0.0680  4.53    182.2134   1257.8990     2.231     1.388 -77.03
       558     584.8787      64.3916  21.1371   0.1196  5.07    516.7968   1258.9125     1.247     1.062  48.65
       559     440.2021     66.77728  21.4457   0.1647  6.85   1709.0836   1246.3550     1.008     0.749  77.00
       560      1251.47     100.2635  20.3112   0.0870  5.75   1140.7288   1258.9856     1.703     1.447 -80.03
       561     466.8405     63.16498  21.3819   0.1469  8.86    911.0001   1265.2188     0.809     0.500  57.13
       562      189.317     42.87708  22.3618   0.2460  6.02   1097.0356   1253.1537     0.924     0.461 -37.06
       563     438.9177     78.36572  21.4488   0.1939  7.66   1121.7810   1245.0609     1.387     0.603  73.45
       564     1678.655     113.4421  19.9924   0.0734  5.62   1695.4043   1234.6526     1.970     1.684  55.98
       565     1336.365     108.5074  20.2400   0.0882  5.47   1115.0430   1227.2411     1.898     1.679 -63.66
       566     392.3365     69.36315  21.5706   0.1920  6.78   1073.4044   1225.6133     1.079     0.782  66.15
       567      257.826     51.19336  22.0265   0.2156  6.84    349.8765   1241.1576     1.484     0.305 -24.95
       568     548.9751     75.82893  21.2059   0.1500  6.22    541.2469   1236.0344     1.262     0.943  82.39
       569     166.2256     42.87708  22.5030   0.2801  7.57   1932.4819   1239.4661     0.510     0.488  43.96
       570     6015.998     67.65022  18.6065   0.0122  3.50     49.7129   1255.9093     1.866     1.652   4.19
       571     22128.14     78.11575  17.1924   0.0038  3.50    595.7915   1229.2749     2.157     1.892  47.62
       572      677.309     64.08714  20.9778   0.1028  4.88   1131.0668   1212.6672     1.239     1.127  79.17
       573     803.4969      58.6702  20.7923   0.0793  4.18   1200.5521   1229.5063     1.342     1.206  64.26
       574     8323.832     184.2621  18.2540   0.0240  4.09   1629.3969   1217.6862     8.951     1.854 -25.59
       575     147.5073     34.25602  22.6327   0.2522  7.32    670.6466   1226.3347     0.586     0.328  44.29
       576     93.28833     30.63951  23.1302   0.3567  6.17   1340.3242   1228.6835     0.566     0.339  44.61
       577     1252.796     66.77728  20.3101   0.0579  4.20    133.3032   1221.0681     1.473     1.372  84.03
       578     1269.961     77.86497  20.2953   0.0666  4.86    566.9706   1219.6068     1.579     1.356 -53.78
       579     168.9072      41.4861  22.4857   0.2667  7.23     36.5060   1224.5118     0.501     0.498 -44.02
       580     539.5475     75.31133  21.2247   0.1516  6.13    976.8775   1206.9877     1.265     0.988 -40.26
       581       231.47     52.32693  22.1435   0.2455  5.86    944.6482   1210.9033     0.950     0.672 -18.09
       582     2680.179      85.2968  19.4844   0.0346  3.87    708.7508   1201.9672     2.502     1.559  30.60
       583      674.854     61.59737  20.9818   0.0991  4.14   1581.8531   1219.2921     1.480     1.246  43.60
       584      2072.62     141.9319  19.7635   0.0744  5.86    583.9460   1207.9786     3.801     1.246   1.33
       585     324.5533     57.32129  21.7766   0.1918  6.96   1002.2520   1197.8501     1.070     0.520  24.52
       586     212.1447     41.01196  22.2382   0.2099  8.41   1364.6554    929.6972     0.568     0.337 -42.98
       587     490.9438      64.3916  21.3272   0.1424  4.92    373.3947   1215.1185     1.340     1.034  30.58
       588     768.2325     48.84737  20.8410   0.0691  3.50    198.5787   1212.3392     1.328     1.235  13.15
       589     2513.996      114.813  19.5539   0.0496  5.17    571.9539   1154.3766     2.250     1.798  11.07
       590     1233.002     91.91855  20.3274   0.0810  4.49    787.2057    924.3514     2.098     1.612 -84.01
       591     277.8503     45.95927  21.9453   0.1796  4.66    719.6808    925.8179     1.327     0.554 -23.57
       592     659.5936     89.10956  21.0066   0.1467  6.13    991.6090   1202.0239     1.677     1.032 -58.47
       593     642.9526     92.34312  21.0343   0.1560  7.97    327.5172   1200.9851     1.317     0.831 -38.05
       594     191.4022     43.33082  22.3499   0.2459  5.94   1195.0081   1193.1785     0.941     0.471  36.14
       595     736.6428      102.004  20.8866   0.1504  7.30   1068.4923   1182.3431     1.718     0.920  57.58
       596      22293.3     72.66799  17.1843   0.0035  3.50   1739.9891   1189.0765     1.871     1.835 -57.02
       597     648.4791      79.6038  21.0250   0.1333  6.36    675.0905   1186.5062     1.211     1.037 -28.60
       598     171.8105     43.33082  22.4672   0.2739  7.56   1459.5264    934.0082     0.768     0.323  56.89
       599     4851.824     61.59737  18.8400   0.0138  3.50    302.9420    921.6456     1.668     1.535  27.23
       600     105093.5     77.86497  15.5008   0.0008  3.50   1561.2112   1169.2021     2.015     1.973  38.89
       601     1281.132      114.813  20.2858   0.0973  7.41    448.3813   1193.0337     1.822     1.067 -18.39
       602       576.22      53.0692  21.1533   0.1000  3.62    693.2235   1191.8678     1.603     1.067  29.52
       603     695.1067     76.85369  20.9497   0.1201  5.89   1416.5898    929.9730     1.238     1.115  78.53
       604     512.3988     43.77985  21.2808   0.0928  3.50     31.9386   1181.7966     1.287     0.990  32.78
       605     384.9253     45.10015  21.5913   0.1272  3.96   1824.6155   1173.1836     1.140     0.903 -62.87
       606     324.5261      58.3359  21.7767   0.1952  5.61   1352.2043    940.9605     1.109     0.808  55.53
       607     2057.891     65.06059  19.7712   0.0343  4.13   1887.5924   1159.3572     1.727     1.644  77.50
       608     362.2792     64.69462  21.6572   0.1939  6.73   1480.2291   1153.5958     1.223     0.627   4.23
       609     122.8984     37.52559  22.8309   0.3316  7.56    763.9869   1174.3413     0.922     0.209 -28.29
       610       1874.4     89.76559  19.8726   0.0520  4.68    322.1519   1171.6003     2.325     1.287  54.56
       611     365.5756     49.24613  21.6473   0.1463  4.10   2029.4822   1149.1749     1.204     0.962  74.37
       612      184.708     48.84737  22.3886   0.2872  6.54    729.1714   1169.8400     0.757     0.569 -46.96
       613      666.985      79.6038  20.9945   0.1296  4.67   1197.8701   1141.4587     2.033     1.160 -86.64
       614     856.5367     48.84737  20.7229   0.0619  3.50   1106.8113   1149.3799     1.352     1.198 -28.67
       615     170.8229     36.46832  22.4734   0.2318  6.81   1763.0057    935.4976     0.779     0.320 -32.77
       616      245.823     38.55388  22.0782   0.1703  5.11    491.7673   1087.5201     0.986     0.484  -8.35
       617     378.0087      67.3605  21.6110   0.1935  8.49    700.0148    937.7055     0.734     0.684   3.60
       618     722.9161     87.55971  20.9071   0.1315  6.66   1368.9866    938.8285     1.392     1.009  34.35
       619     1480.346     80.44666  20.1289   0.0590  4.71   1882.7738   1153.1973     2.852     1.232   4.24
       620     656.2258     76.59879  21.0121   0.1268  5.94    360.9882   1143.6841     1.211     1.102 -88.29
       621     5237.958     122.0784  18.7569   0.0253  3.82   1626.7067   1139.0198     3.657     2.285 -48.85
       622     166.3782      26.5346  22.5020   0.1732  3.50    493.7899   1106.7648     0.759     0.558  47.26
       623     171.3568     48.84737  22.4700   0.3096  7.08    967.9976   1154.9832     0.626     0.605 -89.91
       624      207.823     40.53227  22.2605   0.2118  5.46   1883.9581   1114.0339     0.902     0.524 -45.96
       625     29283.77     73.20429  16.8882   0.0027  3.50    352.5421    936.6500     1.901     1.856 -53.68
       626     108.1283     35.37946  22.9699   0.3553  7.41    481.3177   1103.3442     0.575     0.334 -46.18
       627     174.4135     38.04321  22.4508   0.2369  6.16   2046.3901   1140.8552     0.788     0.427 -69.13
       628     792.7859     71.30959  20.8069   0.0977  5.23   1215.6082   1138.3490     1.303     1.132  76.26
       629     538.3053     63.78124  21.2272   0.1287  4.28   1852.0220   1137.8800     2.402     0.744 -42.99
       630     932.7742     76.59879  20.6303   0.0892  4.89   1658.5836   1144.5480     1.510     1.306 -37.49
       631     3443.919     61.59737  19.2121   0.0194  3.50    586.0181   1121.0311     1.595     1.564  31.46
       632     384.2789     46.80263  21.5932   0.1323  4.53    624.3561   1104.5669     1.017     0.871 -47.62
       633     9982.522      67.3605  18.0567   0.0073  3.50    215.0986    932.2147     1.778     1.710 -30.55
       634     467.6427      69.9248  21.3800   0.1624  7.29   1611.5468    943.8810     1.038     0.731  14.94
       635     1127.708     106.5063  20.4243   0.1026  5.27   1275.8376   1128.9608     2.694     1.234 -48.30
       636      282.479     53.80122  21.9273   0.2068  8.35   1417.6117   1133.7952     0.759     0.449  71.86
       637     1252.066     81.06454  20.3107   0.0703  3.85   1551.9440   1103.9784     2.257     1.559  70.02
       638     1108.685     62.85458  20.4428   0.0616  4.24   1527.4050   1127.2012     1.357     1.304  13.26
       639     641.2943     88.88981  21.0371   0.1505  7.10   1338.2930    946.3470     1.269     0.996 -46.08
       640     535.0195      85.0672  21.2339   0.1727  7.53   1639.7593   1119.7881     1.582     0.660  43.10
       641     124.3881     37.00073  22.8178   0.3230  6.07    845.0017   1103.7527     0.687     0.431   0.08
       642     173.7325     39.05787  22.4551   0.2442  7.98    359.2986   1119.9193     0.915     0.209  62.80
       643     278.3611     48.44533  21.9433   0.1890  5.36   1293.2561   1115.3451     1.328     0.511 -19.33
       644     3728.447     109.5836  19.1260   0.0319  4.59    638.4382   1099.6655     2.294     2.056 -87.44
       645     223.5758     45.10015  22.1812   0.2191  7.04   1326.8047    952.3949     0.765     0.446 -18.69
       646     31509.69     71.58334  16.8087   0.0025  3.50    930.3990    957.8949     1.847     1.842 -67.08
       647     245.4893     47.63106  22.0797   0.2107  6.78    795.9977   1105.1674     0.817     0.504 -59.64
       648     3722.769     109.7619  19.1276   0.0320  4.20   1610.5203   1091.0619     2.555     2.173 -32.08
       649      301.354     38.04321  21.8571   0.1371  3.94   1575.0994    967.9491     1.111     0.729  -8.39
       650     508.5647     62.22915  21.2889   0.1329  4.93   1999.1575   1109.0151     1.496     0.859  54.82
       651     169.5286     27.26171  22.4817   0.1746  3.50   1735.2744   1092.4526     1.010     0.473 -10.03
       652     2631.669      108.327  19.5042   0.0447  5.00   1533.3240   1112.2089     2.245     1.708 -26.06
       653      111.776     33.68025  22.9339   0.3272  5.45   1646.7373   1092.9911     0.677     0.440 -89.50
       654     1590.915     60.31395  20.0507   0.0412  3.97   1430.5894    946.8084     1.404     1.325  11.94
       655     465.6694      69.9248  21.3846   0.1631  6.12    788.0107   1103.5314     1.110     0.949   8.21
       656     529.1663     48.84737  21.2458   0.1002  3.50   1971.9415   1092.2699     1.662     0.942  73.85
       657     197.1903     43.77985  22.3176   0.2411  6.95   1206.6062   1090.8210     0.773     0.443  70.95
       658      214.095     38.55388  22.2283   0.1956  4.57   1400.8241   1079.5156     0.883     0.652 -52.49
       659      781.682     75.57057  20.8222   0.1050  4.80   1185.1421   1088.5111     1.460     1.386  46.36
       660     834.4602     88.00531  20.7513   0.1145  5.69    389.6080    969.1307     1.427     1.372 -67.51
       661     1662.779     54.16352  20.0027   0.0354  3.50   1526.5834    951.6745     1.487     1.334  -3.84
       662     129.7439     32.49812  22.7721   0.2720  6.87   1707.6731    967.3345     0.575     0.335  45.34
       663     341.8262     39.05787  21.7203   0.1241  3.50   1862.3424   1050.5199     1.130     0.886 -18.69
       664     3323.361     61.59737  19.2508   0.0201  3.50   1010.9355   1020.8841     1.650     1.552 -15.18
       665     64775.51     75.57057  16.0263   0.0013  3.50    876.6837   1069.8655     1.972     1.934  -4.01
       666     215.3385     39.05787  22.2220   0.1970  5.36   1771.9504   1029.0317     0.902     0.529 -45.95
       667     456.3147     69.64455  21.4066   0.1657  5.76   1224.4510   1071.8950     1.366     0.865  58.53
       668     1264.116     63.78124  20.3003   0.0548  4.29   1170.6187   1072.7828     1.354     1.323  72.36
       669     275.0105     43.77985  21.9564   0.1729  4.44   1753.5573   1060.1554     1.072     0.738  45.19
       670     806.2799      58.3359  20.7886   0.0786  3.50   1972.8905   1062.5050     1.737     1.338  45.25
       671     74607.09     76.08642  15.8728   0.0011  3.50   1010.5455   1057.5260     1.967     1.948 -57.79
       672     323.9463     55.23617  21.7786   0.1852  5.50   1977.6151   1044.0858     1.084     0.736 -17.75
       673     1246.502     57.99967  20.3155   0.0505  3.66    568.8046   1065.6782     1.471     1.378  31.03
       674     547.6742     75.82893  21.2085   0.1504  8.72    528.7635   1068.2827     0.954     0.649   7.95
       675     1765.382     64.99623  19.9377   0.0400  4.09    160.9210   1065.3999     1.466     1.426  57.17
       676     170.4756     38.55388  22.4756   0.2456  7.73    320.6397   1068.7130     0.567     0.337 -41.44
       677     2518.291     57.66147  19.5520   0.0249  3.50   1929.7161   1046.8184     1.522     1.444  15.27
       678     2186.633     64.69462  19.7053   0.0321  3.72    281.3616   1022.7156     1.641     1.461  29.04
       679     2013.581     68.22598  19.7949   0.0368  4.11    239.4120   1062.8107     1.590     1.415  19.67
       680     5926.597     64.69462  18.6228   0.0119  3.50    133.8412   1023.2704     1.738     1.609   3.76
       681     190.9335     45.10015  22.3526   0.2565  8.42    903.4855   1052.0168     0.802     0.312 -58.06
       682     634.2498      50.4235  21.0491   0.0863  3.78    816.8259   1054.1937     1.308     1.105 -47.80
       683     12264.05     67.65022  17.8332   0.0060  3.50   1563.0876   1036.8643     1.761     1.717  21.32
       684     281.9813     54.52342  21.9292   0.2100  8.45   1717.8318   1048.6095     0.769     0.444  18.69
       685      490.173     42.41849  21.3289   0.0940  3.50   1077.4695   1043.8729     1.267     0.941 -35.68
       686     2201.022     61.91406  19.6982   0.0305  3.79    531.0017   1033.0895     1.559     1.423  -5.04
       687     75.27893     15.31976  23.3631   0.2210  3.50   1140.6986   1017.6852     0.555     0.344 -45.78
       688     420.1714      82.9722  21.4962   0.2145  6.77   1559.8611   1022.5448     1.336     0.927   5.86
       689     671.5261     73.47098  20.9871   0.1188  5.85    122.0657   1031.1016     1.168     1.097  11.89
       690     1578.714     95.67186  20.0590   0.0658  4.13   1579.4246   1011.1091     2.498     1.769  77.68
       691     5197.441     64.08714  18.7653   0.0134  3.50   1857.7148   1025.5179     1.709     1.569  22.68
       692     8998.546     67.06952  18.1693   0.0081  3.50    636.2482   1010.6112     1.771     1.673  -3.56
       693     219.8339     35.37946  22.1995   0.1748  3.71    162.7166   1005.8275     1.134     0.661  22.52
       694     1321.297     67.93871  20.2523   0.0558  4.37   1726.7722    968.9935     1.431     1.374 -82.61
       695     335.3433     38.55388  21.7411   0.1249  3.64   1805.4214   1011.6836     1.080     0.871 -81.58
       696     520389.3     86.43566  13.7640   0.0002  3.50   1169.2328    991.0410     2.325     2.153 -48.76
       697     152.3015     37.00073  22.5980   0.2638  6.93    584.0000    998.0200     0.846     0.289  90.00
       698     106.0319     32.49812  22.9912   0.3329  6.60   1199.6776    997.3103     0.562     0.341  44.36
       699     225.3931     36.46832  22.1724   0.1757  3.69   1103.3905    994.8913     1.062     0.754 -15.00
       700     4221.679     62.54265  18.9911   0.0161  3.50   1835.4211    987.9515     1.644     1.506   0.96
       701     711.5184     75.82893  20.9243   0.1157  5.45    548.0386    987.0768     1.474     1.057  54.93
       702     245.1506     42.87708  22.0812   0.1899  4.68   1935.4275    981.2454     0.976     0.713  -0.05
