#   1 KRON_RADIUS            Kron apertures in units of A or B                         
#   2 MAGERR_APER            RMS error vector for fixed aperture mag.                   [mag]
#   3 Y_IMAGE                Object position along y                                    [pixel]
#   4 X_IMAGE                Object position along x                                    [pixel]
#   5 THETA_IMAGE            Position angle (CCW/x)                                     [deg]
#   6 FLUX_APER              Flux vector within fixed circular aperture(s)              [count]
#   7 A_IMAGE                Profile RMS along major axis                               [pixel]
#   8 B_IMAGE                Profile RMS along minor axis                               [pixel]
#   9 FLUX_RADIUS            Fraction-of-light radii                                    [pixel]
#  10 FLUXERR_APER           RMS error vector for aperture flux(es)                     [count]
#  11 MAG_APER               Fixed aperture magnitude vector                            [mag]
#  12 NUMBER                 Running object number                                     
 3.91   0.0028     54.0677     63.6173  -6.96     29801.07     4.659     4.453      8.528     77.31852  16.8644          1
 3.72   0.0167     17.3630    984.8641 -88.08     5014.825     3.946     1.796      5.958     77.29229  18.7994          2
 3.50   0.0212     18.7792     91.0173 -64.27     3967.152     1.540     1.446      2.702     77.29229  19.0538          3
 3.50   0.0082     15.4457   1445.5848 -51.57     10198.58     1.657     1.523      2.648     77.30103  18.0287          4
 6.01   0.8058      7.9059   1469.7231 -62.96     104.0979     0.891     0.213      1.501      77.2398  23.0064          5
 3.50   2.6550      4.5543    960.5181  67.74     28.64675     1.221     0.204      1.106     70.03381  24.4073          6
 6.21   0.8934      5.0201     54.9799 -45.00     87.06423     1.229     0.289      4.260     71.62754  23.2004          7
 6.28   0.2071      4.2469    145.0632 -10.48     362.0233     1.031     0.624      2.793     69.03252  21.6532          8
 6.73   0.9601     10.5274   1183.3799  16.77     87.47643     0.842     0.456      2.122       77.336  23.1953          9
 5.10   0.2360     18.1513    384.1560  42.53     355.8275     0.978     0.838      2.126     77.30978  21.6719         10
 7.27   0.2278     24.4483    383.4137 -78.66     368.5544     1.489     0.404      4.469     77.31852  21.6337         11
 3.54   0.1010     25.4016    367.1154 -13.70     831.3331     1.355     1.112      2.585     77.28354  20.7506         12
 3.50   0.0017     60.5800   1078.2439  79.77     47984.79     1.941     1.807      2.789     77.30978  16.3472         13
 7.07   2.4447     27.9201   1357.2933  87.28     34.30769     0.837     0.454      4.276     77.23104  24.2115         14
 4.30   0.7008     31.3549   1108.9028  74.59     119.6736     0.853     0.705      1.853     77.22229  22.8550         15
 7.23   0.1732     34.4379    326.1240 -84.99     484.5519     1.041     0.952      4.488      77.2748  21.3366         16
 6.89   0.2785     35.2360   1110.4044 -67.05     301.4163     0.946     0.850      3.260     77.30103  21.8521         17
 4.25   0.4428     39.8006   1170.7745 -35.98     189.5041     1.362     0.566      2.180      77.2748  22.3560         18
 3.56   0.7632     38.8175   1521.2511  34.17     109.9872     1.138     0.596      1.675     77.29229  22.9466         19
 3.50   0.4554     36.6734    334.0000 -28.22     184.4508     0.910     0.211      1.462     77.34474  22.3853         20
 3.50  99.0000     40.3349   1225.9261 -49.54    -64.84864     1.033     0.301      1.587     77.23104  99.0000         21
 4.30   0.3344     43.2110    915.4620 -36.27      251.148     1.110     0.691      2.201     77.32726  22.0502         22
 3.50   0.0018     80.9682    537.4006 -63.20     45769.65     1.863     1.768      2.723     77.28354  16.3986         23
 7.59   0.3893     44.8832    441.2554  63.30     214.2557     0.870     0.216      1.891     76.80098  22.2227         24
 8.18   0.1237     43.3649     46.9432 -28.76     678.8306     0.927     0.207      2.548     77.30978  20.9706         25
 3.50   0.7070     47.1420    473.7140  63.43     118.5973     0.926     0.202      1.288     77.20478  22.8648         26
 7.45   0.0959     47.3210     47.5862  42.35     851.4999     0.603     0.311      2.250     75.15508  20.7245         27
 6.65   0.2090     47.3485     29.0000   0.00     401.9718     0.807     0.477      2.599     77.34474  21.5395         28
 6.87   0.3607     48.2545    440.0000   0.00     232.8883     0.713     0.436      1.895     77.34474  22.1321         29
 6.12   0.7632     51.0359   1435.1760 -34.24     109.9903     0.783     0.497      2.313     77.29229  22.9466         30
 7.31   0.6352     52.3333    266.6667  45.00     132.0515     0.577     0.333      2.409      77.2398  22.7481         31
 3.92   0.0526     75.8943    127.6811 -33.15     1594.054     1.254     1.163      2.297      77.2398  20.0437         32
 5.20   1.7922     72.8091    953.8091  45.00     46.81573     1.181     0.289      2.173     77.25729  23.8740         33
 3.95   0.1027     92.0417    377.0394 -77.59     817.4232     1.893     1.601      3.583     77.31852  20.7689         34
 5.44   0.2714     82.9583    421.5509 -54.03     309.3445     1.270     0.623      2.658     77.31852  21.8239         35
 3.50   0.0012    122.5924    788.9217 -59.46     67921.69     1.960     1.816      2.746     77.30978  15.9700         36
 5.77   6.5739     83.6666    179.0219  27.82     12.77154     0.932     0.206      1.434     77.30978  25.2844         37
 3.67   0.0359     97.3299     56.0065 -20.83     2329.694     1.351     1.269      2.467     77.07334  19.6318         38
 8.46   0.4663     92.1014    495.2714 -63.06     179.9252     0.886     0.214      2.120     77.24855  22.4123         39
 8.60   0.7239     94.3854     89.6815  47.31     115.9842     0.592     0.322      2.778     77.30978  22.8890         40
 6.54   0.1513     99.1556    452.2040 -33.17     555.0507     1.373     0.783      5.004     77.32726  21.1892         41
 3.50   1.7313    107.9520    185.3654 -61.41     48.49459     0.933     0.206      1.306     77.30978  23.8358         42
 7.17   0.3651    114.0206    270.3127 -89.22     229.9112     0.829     0.463      2.289     77.29229  22.1461         43
 7.21   0.3006    118.0000     66.5485  57.15     279.4266     0.773     0.319      2.384     77.34474  21.9343         44
 3.50   0.0022    163.1416   1468.1309 -54.85      38441.4     1.857     1.772      2.706     77.26604  16.5880         45
 7.53   0.4288    132.0424    418.9576  45.00     195.7573     1.201     0.289      1.995     77.29229  22.3207         46
 3.50   2.2470    131.3821     62.3194 -47.19     37.36934     0.591     0.323      0.872     77.31852  24.1187         47
 3.50   2.5706    141.0000    178.9659   0.00     32.64599     0.878     0.289      1.039      77.2748  24.2654         48
 3.50   0.0097    171.1748    877.1526  75.95      8694.56     1.555     1.507      2.617     77.32726  18.2019         49
 7.08   0.7006    152.3333   1279.3936 -43.21     119.8736     0.602     0.315      1.956       77.336  22.8532         50
 3.89   0.1282    165.8038   1445.6473   5.08     655.3568     1.275     0.973      2.348       77.336  21.0088         51
 3.50  99.0000    163.1070    126.3048 -63.08    -65.00715     0.936     0.201      1.117     77.03825  99.0000         52
 6.79   0.6621    163.9584    629.0416  45.00     126.7919     1.223     0.289      1.617     77.30103  22.7923         53
 3.94   0.1531    167.4873    104.0908 -30.29     547.6258     1.111     0.868      2.206     77.22229  21.2038         54
 3.50   0.4785    170.9897   1368.0988 -45.99     175.3592     1.302     0.607      1.984     77.25729  22.4402         55
 6.94   0.5206    169.0000    651.7692 -90.00     161.1841     0.679     0.421      2.262      77.2748  22.5317         56
 5.07   0.2836    181.0743    574.6081  50.74     296.0986     1.295     0.874      3.169     77.31852  21.8714         57
 7.51   0.1887    187.0535   1354.2334  56.76      445.006     1.421     0.779      4.119     77.31852  21.4291         58
 4.23   0.0924    193.5168   1350.4445 -41.46     908.3018     1.303     0.927      2.304     77.26604  20.6544         59
 3.96   0.0228    211.6080    827.3951  -9.36     3676.972     3.727     1.897      6.289      77.2748  19.1363         60
 3.57   0.0490    207.4825    548.8376 -64.15     1713.006     1.395     1.179      2.592     77.28354  19.9656         61
 4.31   0.0263    230.9999    562.1114 -29.05     3186.108     3.227     2.771      6.904      77.2748  19.2918         62
 3.50   0.1698    211.3650    684.4688  86.20     494.3883     1.579     1.065      3.159     77.30103  21.3148         63
 3.50   0.0536    213.0156   1305.8960  64.25     1566.734     1.264     1.115      2.372     77.28354  20.0625         64
 6.31   0.4722    205.8939    937.1061 -45.00     177.5643     1.210     0.289      1.934     77.20478  22.4266         65
 3.69   0.0390    224.5114   1225.8744 -77.81     2149.993     1.414     1.210      2.551     77.22229  19.7189         66
 6.59   0.2966    219.0222    740.5000 -56.89     282.7733     1.456     0.611      3.234     77.23104  21.9214         67
 3.50  99.0000    211.5957    608.7021 -48.75    -61.87821     0.589     0.322      0.920      77.2748  99.0000         68
 3.50   0.0008    260.5684    997.2297 -57.06     102949.8     1.967     1.850      2.736     77.31852  15.5184         69
 3.90   0.1477    223.1899    774.7099 -28.21     568.0521     1.146     0.906      2.065      77.2748  21.1640         70
 3.50   0.0010    266.6972     67.3778 -75.78     86994.83     1.967     1.876      2.700     77.25729  15.7013         71
 4.10   0.0607    244.3300    112.7148  74.17     1381.888     2.024     1.468      3.867      77.2398  20.1988         72
 3.77   7.4919    224.4766     84.0624 -32.38     11.19771     0.789     0.315      1.129     77.24855  25.4272         73
 4.53   0.3737    232.0000     20.0350   0.00     224.5251     0.831     0.289      1.421     77.25729  22.1718         74
 4.57   0.0242    256.4006    612.6793 -30.02     3469.489     2.266     1.670      4.620     77.30978  19.1993         75
 5.77   0.1768    239.8354    838.3702 -20.32      474.887     1.451     0.794      3.340     77.30103  21.3585         76
 6.28   0.1333    250.8140    107.8768 -74.34     627.3526     1.569     1.055      4.855     77.02948  21.0562         77
 6.44   2.3751    240.3460   1478.8618 -47.85     35.32941     1.076     0.282      1.823     77.26604  24.1797         78
 6.23   0.1580    253.0185   1372.5364  88.54     528.3326     0.934     0.498      2.613     76.87136  21.2427         79
 4.67   1.9277    254.2936   1352.3809  21.45     43.29136     0.819     0.369      1.612     76.84498  23.9590         80
 3.50   0.0041    288.3638   1486.2595 -50.05     20315.03     1.730     1.592      2.659     77.30103  17.2805         81
 5.52   0.2447    261.3333     84.2923 -47.25     342.8374     0.559     0.342      1.088     77.25729  21.7123         82
 5.66   0.2117    270.6717   1273.9197 -40.63      396.329     1.404     1.013      4.217     77.24855  21.5549         83
 3.50   0.0197    282.7120   1522.1971 -53.12     4264.911     1.396     1.295      2.414      77.2748  18.9752         84
 3.50   0.0056    303.9742    201.5955 -67.73     15039.83     1.660     1.554      2.585     77.29229  17.6069         85
 5.43   0.1628    294.2861   1475.5723 -56.07     512.6982     1.236     0.945      3.180     76.84498  21.2753         86
 3.70   0.1370    302.6453    563.4780  78.24     612.3549     1.226     1.002      2.691     77.25729  21.0825         87
 3.50   0.0085    322.8607    697.1563 -65.04     9853.705     1.561     1.501      2.566     77.30103  18.0660         88
 6.97   0.2201    308.2586     85.3358  -9.79     381.2795     1.278     0.681      3.203     77.25729  21.5969         89
 7.68   0.1821    312.6170     85.1514 -79.80     460.9541     0.987     0.661      4.615     77.30103  21.3909         90
 3.50   0.1078    322.0946    641.3367 -62.75     778.4717     2.440     1.055      3.800     77.26604  20.8219         91
 4.66   0.0490    328.1743    595.2106  73.06     1713.239     1.457     1.437      3.491     77.28354  19.9655         92
 3.50   1.1621    313.9999    326.0000  90.00     72.24405     0.857     0.289      1.224     77.30978  23.4030         93
 3.50  99.0000    331.2695    182.9999   0.00     -1.77549     0.855     0.444      1.171     77.32726  99.0000         94
 7.80   0.9942    318.3265    226.3265 -45.00     84.36995     0.571     0.337      2.416      77.2398  23.2345         95
 4.76   0.1969    332.9469     93.2881 -11.73     426.0161     1.125     0.860      2.491     77.23104  21.4764         96
 4.07   0.6029    330.2740   1545.6710 -32.70     139.1059     0.997     0.657      1.774     77.22229  22.6916         97
 3.50   1.1888    340.3112    179.6888  45.00     70.53114     0.558     0.343      1.008     77.20478  23.4290         98
 4.01   0.0969    350.8346     54.4693  76.80     866.1569     1.181     1.089      2.269     77.30103  20.7060         99
 3.50   0.0082    368.9971    760.8607 -60.62     10194.24     1.549     1.479      2.524     77.34474  18.0291        100
 7.01   0.4973    348.7852     42.1725 -15.91     168.8087     0.890     0.343      2.107     77.30103  22.4815        101
 3.50   0.0516    362.0011   1500.1412   8.08     1627.935     1.306     1.171      2.441     77.34474  20.0209        102
 3.50   0.0017    396.0186    231.2769 -59.08     50347.75     1.809     1.766      2.636       77.336  16.2950        103
 3.50   0.3524    361.2874   1033.8175 -47.29     236.8222     0.934     0.778      1.818     76.84498  22.1139        104
 3.50  99.0000    360.0423    151.0000  90.00    -108.9568     0.873     0.289      1.602     77.30978  99.0000        105
 6.26   0.4173    369.5384    210.7692  82.98     201.1254     1.089     0.403      1.978     77.29229  22.2913        106
 4.32   0.2686    374.3805   1083.7491 -45.06     312.5958     1.277     0.931      2.374     77.30978  21.8125        107
 6.15   0.1976    371.2109     71.1750  -9.51     422.4699     1.433     0.706      3.782     76.85377  21.4855        108
 6.63   0.1419    377.0762    754.1251  38.19     587.9675     1.702     0.884      4.497     76.80978  21.1266        109
 3.50   0.0124    397.8548   1460.9972 -66.60     6748.823     1.529     1.479      2.551     77.35348  18.4769        110
 7.51   0.1641    372.6167    752.9357  28.61     511.4281     0.945     0.202      2.178     77.30103  21.2780        111
 3.50   0.0103    399.0069    354.3420 -79.02     8159.721     1.576     1.453      2.535     77.34474  18.2708        112
 3.50   0.2884    376.6897     86.1697  25.53     290.9433     1.431     0.435      2.427     77.26604  21.8905        113
 5.34   0.8078    380.7073    126.0802  -7.83     103.8511     1.049     0.436      1.780     77.24855  23.0090        114
 3.50   0.0533    394.4662   1088.6558 -38.71     1574.386     1.345     1.286      2.505     77.26604  20.0572        115
 3.50  99.0000    385.1066    218.2978 -86.25    -34.71987     0.832     0.455      0.920     76.97681  99.0000        116
 5.17   1.0238    389.7467   1195.3679 -81.63      82.0133     1.180     0.455      1.585     77.31852  23.2653        117
 6.94   0.6820    390.3333    260.3925 -43.23     123.1521     0.601     0.315      1.878       77.336  22.8239        118
 6.05   0.1409    397.9496    626.5803  25.15      595.759     1.467     0.519      2.789     77.30978  21.1123        119
 6.16   0.4144    407.3262    281.8120  86.11     202.6701     1.028     0.385      2.370       77.336  22.2830        120
 8.37   0.2166    404.5683    526.5000   0.00      387.063     0.500     0.495      3.000     77.21354  21.5805        121
 6.11  99.0000    408.9999    699.4050  89.99    -106.0027     0.771     0.491      2.493     77.25729  99.0000        122
 3.50   0.0051    438.7710    251.9372 -58.75     16345.37     1.695     1.560      2.589     77.29229  17.5165        123
 3.50   0.0006    461.8542    807.3655 -53.73     142830.1     1.998     1.892      2.709     77.29229  15.1629        124
 4.52   0.0994    421.7829    158.7665  48.54     844.6551     1.506     1.389      3.469     77.30103  20.7333        125
 8.33   0.1461    412.2601      1.3008  69.98     426.3074     0.906     0.359      4.113     57.33977  21.4757        126
 6.36   1.5814    412.6538    198.9613  28.69     53.07922     0.914     0.210      1.054     77.29229  23.7377        127
 6.85   0.5077    415.6755    558.2351  47.73     165.3097     1.077     0.348      2.492      77.2748  22.5043        128
 7.88   2.3708    415.3739   1561.3536 -45.60     35.42177     0.603     0.315      2.488     77.32726  24.1768        129
 6.06   0.4106    419.4582   1204.6603 -19.80     204.3415     1.038     0.707      3.006     77.25729  22.2741        130
 5.49   0.1863    427.7241   1179.3151  16.88     450.2653     1.365     0.886      2.816     77.23104  21.4163        131
 6.73   0.1974    420.6666    133.9999  28.16     425.3388     0.919     0.209      2.512     77.32726  21.4782        132
 3.50   0.0769    433.7999   1421.7810  -3.23     1091.985     1.400     1.147      2.494     77.29229  20.4545        133
 5.78   0.2139    431.7544    717.7675  83.83     390.4518     1.303     1.115      4.125     76.88895  21.5711        134
 5.67   0.1136    426.3399    433.8217  -0.65     738.9997     1.618     0.697      4.501     77.31852  20.8784        135
 7.70   1.9527    425.2681   1064.0602 -27.55     42.96769     0.861     0.219      1.688     77.25729  23.9671        136
 3.53   0.0159    451.1560     21.1324 -40.41     5284.816     1.586     1.454      2.606      77.2748  18.7424        137
 5.33   0.1718    434.9251    151.0956  33.14     488.2047     1.042     0.753      2.353      77.2398  21.3285        138
 3.50   0.1791    440.7094    305.4552 -67.81     468.3487     1.234     0.946      2.139     77.24855  21.3736        139
 6.55  99.0000    436.3333    378.0375 -27.60    -89.89556     0.940     0.203      1.625     77.29229  99.0000        140
 4.61   0.0202    468.6138    850.4859  22.29     4158.292     6.918     1.705     11.037     77.29229  19.0027        141
 3.64   0.0144    458.6819     34.3852 -68.71     5812.006     1.504     1.362      2.523     77.30978  18.6392        142
 5.24   0.0998    446.1402    122.2485 -40.13     841.2847     1.535     0.986      3.128      77.2748  20.7376        143
 3.50   2.2669    444.3414     32.6586  45.00     37.01112     0.584     0.329      0.859     77.25729  24.1292        144
 7.72  99.0000    446.3051   1504.6737  43.88    -79.29729     0.562     0.341      2.075     77.24855  99.0000        145
 3.53   0.0468    464.6877    468.4340 -68.06     1793.858     1.453     1.345      2.706     77.28354  19.9155        146
 3.50   1.1122    453.9789    838.6877 -89.20      75.4742     0.829     0.463      1.186     77.29229  23.3555        147
 7.02   0.9724    453.8300   1533.0110   0.29     86.35494     0.711     0.376      1.965     77.31852  23.2093        148
 5.39   0.1856    461.9751   1096.1796 -25.46     452.2773     0.895     0.833      2.342     77.30103  21.4115        149
 4.28   0.0548    471.9928    254.1263 -68.26     1532.527     1.378     1.145      2.591     77.32726  20.0865        150
 4.00   0.0367    472.9767    734.7629 -49.28     2285.587     1.302     1.161      2.451     77.30103  19.6525        151
 3.50   0.0289    478.8103    922.8269 -42.14     2900.091     1.387     1.317      2.475     77.30103  19.3940        152
 6.40   0.2585    462.5494    724.5518 -15.89     324.8158     1.098     0.412      2.505     77.31852  21.7709        153
 3.90   0.0831    478.8674   1276.7657 -61.05     1010.435     1.415     1.029      2.427     77.30978  20.5387        154
 6.36   0.1552    489.4743    839.6248  73.84     540.7927     1.966     0.666      4.465     77.29229  21.2174        155
 3.50   0.0687    484.9014   1070.4312 -49.44     1221.271     1.269     1.107      2.369     77.22229  20.3330        156
 4.51   0.3886    481.7586   1308.7125 -21.40     215.9453     1.068     0.925      1.877     77.26604  22.2141        157
 6.88   0.4136    476.7125   1167.9124  -5.70      202.769     0.676     0.450      2.617     77.23104  22.2825        158
 5.21   0.4521    479.8539    682.4712  28.79     185.5746     0.982     0.433      2.053     77.25729  22.3787        159
 5.08   0.0404    496.8585     82.7381  -5.62      2077.61     2.096     1.775      4.956     77.25729  19.7561        160
 4.94   0.0406    496.3174   1187.4581  -3.91     2066.116     2.489     1.694      5.489     77.25729  19.7621        161
 4.02   0.0064    532.7239    518.8169  23.88     13217.17     3.814     2.534      6.522     77.32726  17.7472        162
 5.03   0.0751    505.2529    762.8248  71.04     1118.745     1.574     1.349      3.965       77.336  20.4282        163
 3.50   0.0346    516.3974   1461.3535  24.87     2430.503     3.655     1.596      6.197       77.336  19.5858        164
 4.19   0.1169    502.7437    863.3572  83.20     717.8325     1.102     1.026      2.096     77.28354  20.9099        165
 4.80   0.3317    498.9189    365.9335 -28.31     252.8388     1.085     0.793      2.573     77.23104  22.0429        166
 6.20   0.1219    510.6279    165.8426  11.51     689.0486     1.070     0.766      3.554     77.32726  20.9544        167
 7.23 136.0033    504.9778    324.6298 -88.81    0.6172567     0.793     0.483      3.767     77.30103  28.5738        168
 3.98   0.1212    514.6561   1179.0906 -51.96     691.9634     1.211     0.892      2.287     77.24855  20.9498        169
 8.53   0.1786    511.6318    161.4211  -2.87       469.94     0.958     0.481      4.369     77.29229  21.3699        170
 5.50   0.2187    520.2025    641.5090 -38.14     383.5893     1.005     0.778      2.669     77.25729  21.5903        171
 3.50   6.0997    519.2086   1518.7914  31.81     13.75493     0.775     0.675      1.972     77.25729  25.2039        172
 3.50   1.6971    522.9825    182.0000 -44.02     49.46054     0.876     0.500      1.238     77.29229  23.8144        173
 3.50  99.0000    525.0416     54.0416  45.00    -6.332193     1.223     0.289      7.340     77.30103  99.0000        174
 3.82   0.0518    540.9442    999.7346 -65.40     1618.641     1.402     1.144      2.566     77.26604  20.0271        175
 7.29   0.7729    537.3212    405.2670  70.51     108.5184     0.841     0.363      2.132     77.23104  22.9612        176
 3.50  99.0000    535.3260    745.0220  -0.91    -256.0592     0.821     0.469      0.939     77.31852  99.0000        177
 3.50   0.6728    546.6808    933.8734  -5.12     124.6736     0.818     0.462      1.584      77.2398  22.8106        178
 3.72   0.0352    559.8889   1041.4730 -32.05     2385.392     1.450     1.299      2.660     77.23104  19.6061        179
 4.40   0.0560    571.7235     45.7267  71.43      1498.25     1.855     1.238      3.613     77.24855  20.1110        180
 4.87  99.0000    556.0773    805.6732  62.82    -33.32362     0.952     0.198      1.548     77.24855  99.0000        181
 3.50   0.0087    581.4415    144.8172 -73.98     9689.148     1.612     1.481      2.576     77.30103  18.0843        182
 6.90   1.2344    556.5573    778.4302 -45.46      68.0303     0.544     0.443      1.834     77.32726  23.4682        183
 3.50   0.0556    572.1415   1447.5883  21.34     1511.528     2.100     1.554      4.351     77.31852  20.1015        184
 4.37   0.2290    565.5607    139.7153 -61.31     366.5774     1.052     0.799      2.460     77.28354  21.6396        185
 3.66   0.0176    597.6909    782.6697 -13.56     4759.681     3.019     2.901      6.603     77.24855  18.8561        186
 3.50   0.0087    582.9792    318.9888 -22.99     9691.007     1.571     1.502      2.562     77.28354  18.0841        187
 6.43   0.4220    563.8055    905.2537 -13.51      199.057     0.872     0.349      2.177     77.35348  22.3026        188
 6.10  99.0000    570.0448    113.0000  90.00    -34.61245     0.865     0.289      1.404     77.32726  99.0000        189
 6.09   0.1883    577.2741   1001.4787 -49.91     445.6086     1.480     0.783      3.369     77.25729  21.4276        190
 5.86   1.3080    579.9208   1104.9209  45.00       63.845     1.174     0.289      1.932     76.89774  23.5372        191
 6.85   0.3135    579.5740    740.7037 -49.06      267.627     0.595     0.315      1.754     77.26604  21.9812        192
 4.21   0.1301    585.4999     75.9834   3.10     645.1814     1.185     0.946      2.619     77.26604  21.0258        193
 3.50  99.0000    581.6816    897.6592 -43.99    -85.95733     0.574     0.335      0.869     77.25729  99.0000        194
 7.59   0.4539    585.9788   1101.0000  90.00     184.9003     0.878     0.289      2.551      77.2748  22.3827        195
 3.56   0.4916   1004.9223   1237.7094  53.03     170.6386     1.052     0.491      1.440      77.2398  22.4698        196
 4.30   0.0914   1597.9526    655.1423 -49.37     774.7714     1.908     1.129      3.304      65.1848  20.8271        197
 6.44   1.9516   1599.0642     19.6310 -61.16     33.58807     0.927     0.207      1.727      60.3606  24.2345        198
 3.53  99.0000   1597.8390     32.1611 -45.00    -2.579591     1.191     0.289      1.236     65.67037  99.0000        199
 5.36   0.1077   1595.7672    373.9221  31.21     725.5945     1.375     0.977      3.484     71.96648  20.8983        200
 5.97   0.3071   1581.3082   1414.3082  62.18     273.0488     1.138     0.482      2.653     77.20478  21.9594        201
 3.96   0.0355   1567.5634     22.0702 -33.11     2367.914     1.550     1.347      2.748     77.30103  19.6141        202
 4.45   0.0639   1566.7277    784.6791 -79.02     1312.867     1.726     1.112      3.288     77.24855  20.2544        203
 4.05   0.2478   1551.6348   1221.8518 -14.31     338.9079     0.821     0.737      1.956     77.31852  21.7248        204
 3.76   0.3472   1552.6969    131.9093 -27.08     241.4996     0.926     0.205      1.517     77.21354  22.0927        205
 3.50   0.1277   1547.0566    863.3163  86.36     656.7381     1.311     1.162      2.486     77.24855  21.0065        206
 7.52   1.9150   1542.0454    635.0454  45.00     43.84328     1.201     0.289      2.619     77.30978  23.9452        207
 7.38   0.6872   1542.3176    330.9529   1.85        122.1     0.825     0.465      2.823     77.25729  22.8332        208
 3.50   0.1928   1537.1063   1429.5767 -58.05     435.2545     1.861     1.083      3.103     77.26604  21.4531        209
 7.87   0.3270   1539.6814    263.2966  46.29     256.4403     0.554     0.344      2.689     77.21354  22.0275        210
 3.50   0.6150   1539.6504     24.9756  28.39     136.5658     0.927     0.208      0.984       77.336  22.7116        211
 4.71   0.7262   1522.0966    576.6367  32.06     115.4835     1.363     0.181      1.935     77.22229  22.8937        212
 5.89   0.1850   1520.2023     84.3736  78.66     453.7235     1.114     0.613      3.065     77.28354  21.4080        213
 4.71   0.1555   1515.5050    483.6837 -65.34     539.1487     1.213     0.808      2.526     77.19603  21.2207        214
 3.51   0.0102   1515.7380    392.7282 -44.44     8254.966     1.576     1.504      2.550     77.24855  18.2582        215
 8.24   0.2355   1510.0000    260.2902 -61.41     352.2814     0.859     0.219      2.693     76.39504  21.6828        216
 5.83   0.5184   1506.0000   1470.6666  61.84     162.0011     0.919     0.209      1.715     77.32726  22.5262        217
 4.61   0.0998   1504.9624    723.4783  11.29      840.794     1.169     1.011      2.149      77.2748  20.7383        218
 3.89   0.0192   1278.8848   1331.4534 -58.59     4371.239     1.470     1.370      2.579     77.24855  18.9485        219
 5.03   0.1808   1274.2249    698.3608 -58.12     464.4525     1.289     0.832      2.799     77.31852  21.3826        220
 6.66   0.3945   1269.1691    361.5000 -74.69     212.5506     0.848     0.463      4.180     77.21354  22.2313        221
 5.52   0.3316   1263.2411    215.6861  38.95     253.0658     0.526     0.349      1.443      77.2748  22.0419        222
 5.19   3.3613   1254.3495    506.0242  28.39     24.98607     0.927     0.208      1.041       77.336  24.5558        223
 7.21   0.4617   1252.0455     81.3561  61.32     181.8572     0.922     0.208      4.173     77.31852  22.4007        224
 3.50  99.0000   1250.9790   1304.7015  61.03    -52.58596     0.859     0.218      2.919     77.24855  99.0000        225
 6.00   0.2928   1238.4994    857.4747  45.04      284.796     1.023     0.788      3.362     76.77457  21.9137        226
 4.19   0.0281   1235.1313    304.8505  51.97     2987.812     1.322     1.310      2.631     77.25729  19.3616        227
 7.35   0.5685   1217.6882   1558.9138 -27.12     147.5547     0.936     0.203      1.609      77.2398  22.6276        228
 3.50   0.8722   1213.5168   1389.5337  45.75     96.15281     0.515     0.483      1.150     77.22229  23.0926        229
 3.95   0.0516   1208.5066    838.8428 -76.66     1625.014     1.272     1.128      2.420     77.22229  20.0229        230
 3.75   0.0501   1202.5293    339.0961 -80.37     1673.155     1.632     1.252      2.612     77.24855  19.9912        231
 5.26   0.0422   1195.6740    124.2792  83.25      1988.38     2.138     1.722      5.199     77.25729  19.8038        232
 5.94   0.1580   1182.4340    176.5399  10.29     531.1654     1.285     0.915      3.008     77.30103  21.2369        233
 7.14   0.2143   1157.6039    568.9058  28.96     391.6381     0.942     0.202      1.885     77.26604  21.5678        234
 4.56   0.0728   1154.3538   1352.9138 -24.85     1152.351     1.602     1.366      3.698      77.2748  20.3960        235
 5.63   0.5621   1173.6432    268.0235   1.16     149.3704     0.802     0.479      2.229     77.31852  22.6143        236
 4.76   0.0560   1152.1494     99.4870  13.81     1497.043     1.304     1.097      2.610     77.24855  20.1119        237
 4.20   0.6311   1133.6503    111.3251  46.01     132.9071     0.581     0.331      0.902      77.2398  22.7411        238
 4.98   0.1123   1130.8446    219.3437 -35.29     747.5361     1.440     0.937      2.986     77.28354  20.8659        239
 3.50   1.4681   1131.6533   1251.0399   1.86     57.17744     0.808     0.475      1.421     77.29229  23.6569        240
 4.96   0.1125   1130.0153    547.5102 -54.19     746.3348     1.112     0.971      2.553     77.29229  20.8677        241
 3.50   0.5388   1130.3888    503.9585   2.48      155.818     0.781     0.487      1.419     77.30103  22.5685        242
 3.50   1.3284   1129.3102    963.0695  -2.62     63.13734     0.828     0.461      1.125     77.23104  23.5493        243
 8.38   0.3815   1124.0000    918.3257  61.77     220.0493     0.909     0.212      2.615     77.30978  22.1937        244
 3.50   0.6830   1113.0000   1390.0215   0.00     122.8666     0.828     0.289      1.352      77.2748  22.8264        245
 6.31   0.5245   1112.6870    827.0816  27.17     159.9448     0.935     0.203      1.533     77.24855  22.5401        246
 3.50   0.0118   1108.2023    427.9747 -49.23     7068.543     1.562     1.475      2.560     76.94167  18.4267        247
 4.92   0.0814   1096.0582   1526.3983 -89.10     1032.176     1.227     1.127      2.866     77.34474  20.5156        248
 4.12   0.9872   1106.9767    200.3254  89.05     85.03398     0.821     0.468      3.198     77.30103  23.2260        249
 3.50   0.0025   1080.7655    512.1357 -63.83     33689.33     1.742     1.652      2.560     77.29229  16.7313        250
 5.17   0.0441   1072.8773   1219.1770 -74.69     1904.186     2.145     1.588      4.891     77.29229  19.8507        251
 4.78   0.0799   1066.7205   1562.5006 -58.37     1049.609     2.406     1.314      5.203     77.21354  20.4974        252
 5.93   0.7376   1069.7163   1084.4326  40.11     113.8002     0.591     0.316      1.628     77.29229  22.9096        253
 5.07   0.5952   1069.6588    900.0237 -28.48     141.0891     0.916     0.210      1.303     77.32726  22.6763        254
 3.90   0.2577   1066.6433   1597.2023  30.34     286.1186     1.133     0.835      2.118     67.88716  21.9086        255
 4.65   0.2946   1067.5428    568.7208 -76.54     284.8056     1.207     0.581      2.520     77.26604  21.9136        256
 4.62   0.5439    975.3115   1443.6448  43.11     154.2568     0.577     0.333      0.878     77.25729  22.5794        257
 7.64   1.0199    972.3511   1499.6312  44.45     82.32796     0.600     0.318      2.865     77.31852  23.2611        258
 3.50  99.0000    969.0248    620.6750  88.99     -134.809     0.821     0.468      0.534     77.28354  99.0000        259
 4.95   0.3056    965.8400    416.3594 -23.72     274.7527     0.932     0.671      2.456     77.31852  21.9526        260
 3.50  99.0000    955.0853    303.2907 -87.14    -117.1335     0.839     0.453      1.004     77.23104  99.0000        261
 5.13   0.1101    952.0725    654.0963  53.15     761.5783     1.707     1.235      4.002      77.2398  20.8457        262
 5.76   0.4039    952.6729    887.3646  43.61     207.8201     0.588     0.326      1.081     77.28354  22.2558        263
 4.95   0.3907    951.5815    827.8556  -5.62     214.8901     1.408     0.476      2.102     77.30103  22.2195        264
 5.59  99.0000    950.4417    268.2458 -84.47    -155.8856     1.143     0.418      2.149     76.87136  99.0000        265
 5.31   0.4749    948.7702    445.1740 -21.09     176.7406     1.027     0.568      2.015     77.29229  22.4317        266
 4.08   0.0427    939.8657   1067.0358 -60.98     1967.298     1.397     1.121      2.510     77.30103  19.8153        267
 4.99   0.1615    937.9785    515.8426  68.73     519.9941     2.179     0.812      3.543     77.31852  21.2600        268
 6.31   0.3819    933.4297   1118.6074  43.23     219.8278     0.997     0.547      2.321     77.30978  22.1948        269
 6.22   1.2461    933.5460   1027.5306  44.22     67.32917     0.520     0.476      1.275     77.25729  23.4795        270
 6.35   2.8341    932.7031   1006.0182  28.16     29.61099     0.880     0.217      1.460      77.2748  24.3714        271
 4.58   0.0663    929.1964   1322.3904 -72.76     1265.224     1.309     1.180      2.762     77.26604  20.2946        272
 3.50  99.0000    929.2764   1498.6666  41.56    -86.11368     0.551     0.344      1.167     77.22229  99.0000        273
 7.74   0.3166    927.2894    934.1693  -5.81     265.0046     0.829     0.448      2.763     77.26604  21.9919        274
 6.49   0.6124    925.9583   1106.0000  90.00     137.1024     0.849     0.289      1.464     77.30978  22.7074        275
 6.52   0.5492    926.0001     46.9569   0.00     152.0521     0.769     0.638      1.661     76.88895  22.5950        276
 5.58   0.5783    920.2390   1027.9854  50.95     145.2025     1.019     0.291      4.082     77.31852  22.6451        277
 4.91   0.0825    913.7161    838.4708 -59.18     1016.951     1.166     1.048      2.752     77.23104  20.5317        278
 7.94   0.2341    914.9566   1118.3767  87.58     358.6533     0.789     0.484      3.808     77.31852  21.6633        279
 3.84   0.1714    913.1606   1000.7858   8.85      489.755     1.348     0.878      2.346     77.31852  21.3251        280
 6.21   0.3492    908.8943    658.6949 -63.07      240.086     0.936     0.202      1.791     77.19603  22.0991        281
 3.50   0.0129    901.2242    302.8380 -64.59     6487.724     1.500     1.389      2.480     77.30103  18.5198        282
 6.47   0.5890    902.6824    875.9529  -1.85     142.4561     0.825     0.465      1.523     77.25729  22.6658        283
 5.74  99.0000    900.7433    379.5900 -38.18    -56.98268     0.570     0.329      1.582       77.336  99.0000        284
 7.73   0.3809    898.5576    987.7576 -53.18     220.3856     0.572     0.322      2.496     77.29229  22.1920        285
 3.89   0.0608    896.8293    538.6411  -8.39      1380.13     2.029     1.362      3.698     77.31852  20.2002        286
 3.75   1.0717    897.3262   1127.1058  -4.43     77.82614     0.816     0.466      1.130     76.80098  23.3222        287
 5.84   0.1996    894.7896   1425.7336 -39.03     420.6815     1.144     0.840      2.960     77.32726  21.4901        288
 3.50   2.3151    892.3071   1453.3464 -43.17     36.23701     0.571     0.336      1.115     77.24855  24.1521        289
 3.92   0.1427    889.7145    325.0487  30.18      588.122     1.557     0.876      2.805     77.26604  21.1263        290
 3.50   0.0007    881.0616   1592.5116 -55.90     114658.8     1.931     1.812      2.641     77.24855  15.4015        291
 3.92   0.1024    886.5411   1500.3887  47.44     820.1609     1.300     1.102      2.587       77.336  20.7653        292
 3.50   0.4353    885.9303    339.0670 -71.13      191.615     1.344     0.699      2.294     76.80098  22.3439        293
 4.59   0.1267    878.3832    960.8664  37.61     663.0162     1.144     1.033      2.822     77.32726  20.9962        294
 4.77   0.6516    877.5881    541.9119 -33.89     128.8273     0.733     0.330      1.598     77.30103  22.7750        295
 4.38   0.0289    870.2298   1103.7097 -73.38     2899.523     2.032     1.595      3.787     77.26604  19.3942        296
 4.52   0.0769    868.6579    939.4280  32.29     1091.389     2.150     1.335      4.123     77.31852  20.4550        297
 3.84   0.4333    870.4456    643.5138 -54.47     193.6978     1.142     0.764      2.184      77.2748  22.3322        298
 6.86  99.0000    867.6667    454.0000  28.15    -25.77246     0.919     0.209      1.324     77.32726  99.0000        299
 3.56  99.0000    864.0000   1015.3038  30.52    -3.161508     0.904     0.558      1.729     76.83618  99.0000        300
 3.50   0.4783    862.8578    637.2549 -80.23     175.4351     0.906     0.718      1.824     77.26604  22.4397        301
 4.39   0.1183    859.2086   1339.7319 -75.87     701.6392     1.400     0.937      2.565     76.45695  20.9347        302
 3.50   1.6562    856.2928    544.9837  17.28     50.68338     1.169     0.880      2.016     77.29229  23.7878        303
 8.21   0.2937    848.0262    359.4051  25.67     285.8211     1.131     0.450      3.475     77.30103  21.9098        304
 4.65   0.1396    845.9457   1063.5474 -53.21     601.4287     1.214     0.924      2.605     77.28354  21.1020        305
 4.99   0.0648    844.0078   1106.1466  18.74     1295.807     1.539     1.224      3.769     77.35348  20.2686        306
 3.50   0.0723    837.4356    298.7454  -8.69      1161.63     1.235     0.998      2.233     77.30103  20.3873        307
 5.87   2.7205    837.5001   1520.6578  13.33     30.81555     0.825     0.475      2.268     77.19603  24.3281        308
 5.52   0.1769    836.7526    819.0479  -1.54     474.6201     0.937     0.685      2.099     77.32726  21.3591        309
 7.77  46.7400    829.0397   1086.9603  45.00     1.796692     1.211     0.289      1.543     77.32726  27.4138        310
 3.63   0.0126    823.7004    654.3642 -43.70     6646.188     1.505     1.472      2.575     77.20478  18.4936        311
 6.75   1.6803    823.0000    329.9342   0.00     49.98818     0.859     0.289      1.828     77.34474  23.8028        312
 6.76   0.8600    821.0000   1398.1019   0.00     97.56155     0.767     0.289      1.872     77.25729  23.0768        313
 7.59   4.3474    819.2966    892.6593  42.74     19.29248     0.564     0.339      2.879     77.23104  24.8365        314
 5.81   0.3311    819.4675    702.4685 -77.33     253.3225     0.906     0.654      2.154      77.2398  22.0408        315
 3.50   1.3051    823.6505   1039.6748 -46.00     64.27335     0.581     0.331      0.847      77.2398  23.5299        316
 7.19   0.3791    810.8054    843.1613   0.92     221.4698     1.452     0.395      2.901     77.30103  22.1867        317
 3.50   2.1749    809.1948    616.4502  60.05     38.62116     0.936     0.197      1.352     77.34474  24.0829        318
 3.50   0.0138    803.8774   1378.6176 -25.36      6104.41     1.603     1.509      2.594     77.31852  18.5859        319
 3.50   0.0054    800.1184    695.5565 -64.85     15458.32     1.926     1.710      2.824     77.26604  17.5771        320
 4.10   0.0224    795.4760    695.4899 -56.55     3455.135     1.203     1.128      2.488     71.32491  19.2038        321
 4.93   0.4907    805.0231    859.9769  45.00     171.0997     1.209     0.289      1.508     77.30978  22.4669        322
 3.76   0.0297    801.5091     41.0886 -27.73     2821.162     1.413     1.194      2.409     77.22229  19.4239        323
 4.03   0.8663    794.2845    295.9999  28.64     96.89119     0.851     0.219      1.296     77.29229  23.0843        324
 3.50   1.0802    789.3176    872.3412 -43.94     77.66293     0.574     0.335      0.851     77.24855  23.3245        325
 4.58  99.0000    786.2718   1348.8359  26.33    -31.14771     0.915     0.203      1.223     77.30103  99.0000        326
 3.50   0.0359    774.7040   1427.5836 -75.40     2337.861     2.569     1.893      4.914     77.28354  19.6280        327
 8.24   0.3939    776.9769   1154.6436  61.72     213.1564     0.936     0.205      4.415     77.30978  22.2283        328
 7.71   0.4763    774.6102    826.9153  28.89     176.2218     0.941     0.203      2.140     77.29229  22.4349        329
 6.75   0.2501    768.3767    140.7048 -64.73     335.5305     1.260     0.531      3.773      77.2748  21.7357        330
 4.58  99.0000    765.4047    567.7097  71.07    -83.01192     1.181     0.257      1.453     77.25729  99.0000        331
 6.32   4.8625    764.9336    834.6593 -87.00     17.25289     0.810     0.473      1.368     77.24855  24.9578        332
 4.27   0.3902    762.6816    957.0000  28.30     215.1338     0.899     0.213      1.340     77.29229  22.2182        333
 3.50  99.0000    761.3489     41.9999   0.00    -93.30529     0.807     0.477      1.600     77.34474  99.0000        334
 7.97   0.3002    759.6019   1020.3093  71.25     279.4832     1.220     0.259      2.090     77.25729  21.9341        335
 8.40   0.5968    758.0253   1340.9747 -45.00     140.6919     1.197     0.289      3.604     77.30978  22.6793        336
 7.38   0.3888    754.7359    195.0281   1.28     215.9165     0.726     0.441      2.900     77.29229  22.2143        337
 4.48   0.0561    743.5812    556.2144 -23.74     1496.556     1.169     1.130      2.480     77.28354  20.1123        338
 4.25   0.1400    738.8983   1157.9391  -5.11     595.9686     1.189     0.975      2.475     76.80098  21.1119        339
 5.82   0.1043    736.9972    649.5864 -75.11      804.163     1.041     0.923      3.088     77.26604  20.7866        340
 3.50   0.0012    727.4346    848.3109 -62.22     68812.87     1.939     1.833      2.720     77.26604  15.9558        341
 3.55   0.2994    722.0690   1394.6014 -54.17     280.5203     1.100     0.942      2.066     77.32726  21.9301        342
 4.37   0.0716    728.2220   1178.2739 -88.21     1172.989     1.259     1.184      2.648     77.32726  20.3768        343
 6.86   0.5541    720.0156   1198.6880  37.94     151.4638     1.020     0.310      3.242     77.28354  22.5992        344
 3.85   0.0646    716.8208    808.2562 -62.02     1300.771     1.343     1.068      2.501     77.31852  20.2645        345
 4.71   0.0527    709.7173   1163.7421  29.71     1591.408     1.272     1.179      2.647     77.25729  20.0455        346
 5.18   0.5793    707.8647    794.4321  68.69     144.9074     0.611     0.475      1.238     77.30103  22.6473        347
 4.07   0.0542    705.0020   1339.0494 -26.07     1531.919     1.702     1.368      3.385      76.4658  20.0869        348
 3.50   0.7850    708.0000   1079.9551   0.00     106.9756     0.847     0.289      1.148     77.32726  22.9768        349
 3.93   0.0317    703.5070    952.4031  48.61     2648.204     1.412     1.372      2.697     77.25729  19.4926        350
 3.95   0.1440    699.6144    582.3786  -6.14     582.7095     1.750     1.076      3.564      77.2748  21.1364        351
 3.50   1.0208    699.6514   1104.0460 -28.80      82.2646     0.912     0.210      1.329     77.32726  23.2620        352
 6.29   0.0988    692.6816   1213.4618 -13.18     848.7604     1.195     0.874      3.853      77.2398  20.7280        353
 6.53   0.1047    687.8627   1213.5134 -68.84     800.9738     1.594     0.708      5.358      77.2398  20.7910        354
 7.17   1.2258    692.9612    315.8242 -89.02     68.49525     0.737     0.380      2.492     77.30978  23.4608        355
 3.50  99.0000    693.3105    275.0000  28.38    -141.5105     0.888     0.215      1.344     77.25729  99.0000        356
 3.50  99.0000    692.0005    686.0005  45.00    -131.5963     1.190     0.289      1.378     77.30978  99.0000        357
 3.64   0.0426    686.2928    644.1157  18.16     1970.278     1.386     1.258      2.526     77.22229  19.8137        358
 3.50  99.0000    688.1910    130.8397 -41.22    -7.126589     0.715     0.558      1.335     77.30978  99.0000        359
 3.50  99.0000    682.0001    711.3258 -61.77    -8.348133     0.909     0.212      1.062     77.30978  99.0000        360
 3.50  99.0000    679.9164    873.2916  62.82    -8.293972     0.907     0.211      1.541     77.24855  99.0000        361
 3.50  99.0000    676.0003    863.6665 -61.84    -103.0444     0.919     0.209      3.899     76.88895  99.0000        362
 6.99   0.2155    669.6736   1221.2554 -61.15     387.0239     0.941     0.540      3.394     76.80978  21.5807        363
 7.29   0.2391    667.1979   1180.2960  -4.07     350.9733     0.991     0.393      5.321     77.28354  21.6868        364
 3.50   0.0013    649.1278   1464.2970 -60.36     66900.68     1.881     1.777      2.681      77.2398  15.9864        365
 4.52   0.1541    655.6266    870.9739  53.62     544.7541     1.000     0.763      2.265     77.29229  21.2095        366
 3.65   0.4983    647.0808    652.9033  50.72     168.2891     0.833     0.618      1.615     77.22229  22.4849        367
 3.50   0.5379    642.5601    276.5157  60.45     156.0424     1.468     0.756      2.084     77.28354  22.5669        368
 3.50  99.0000    639.1351    205.5991  81.18    -120.5996     0.768     0.481      1.162     77.34474  99.0000        369
 3.50  99.0000    635.0000    106.0459   0.00    -34.46039     0.874     0.289      0.792     77.34474  99.0000        370
 4.23   0.1257    631.4108    806.0190 -88.99     667.6823     1.270     0.959      2.367      77.2748  20.9886        371
 3.50  99.0000    629.7142    942.1138 -50.77    -19.13057     0.869     0.488      1.689     77.23104  99.0000        372
 5.92  99.0000    628.0646    868.6452  86.82    -21.50915     0.801     0.477      1.351     77.29229  99.0000        373
 3.98   0.0870    624.2649   1581.3937 -31.86     965.3472     1.221     0.954      2.331       77.336  20.5883        374
 7.04   0.1285    619.1565   1150.5021  76.45     649.0218     1.338     0.564      3.449     76.78338  21.0194        375
 3.50  99.0000    613.3334   1026.9771 -28.56    -86.73209     0.906     0.212      2.328     77.30978  99.0000        376
 7.28   0.5349    613.0000    995.0449   0.00     156.9934     0.882     0.289      2.579     77.32726  22.5603        377
 5.61   0.4139    610.2850    945.0278  80.89     202.7831     0.781     0.694      2.113     77.28354  22.2824        378
 5.29  99.0000    608.4229   1011.8737  31.56    -86.59081     0.801     0.307      1.426     77.30978  99.0000        379
 3.50   0.0014   1564.5637    304.2741 -49.92     60318.97     1.844     1.738      2.596      77.2748  16.0989        380
 6.78   0.6645    588.9420   1139.6989 -62.51     126.2118     0.907     0.211      1.269     77.22229  22.7972        381
 6.82   0.5655    586.2841   1172.6737  42.47     148.3446     0.552     0.344      1.864      77.2398  22.6218        382
 6.88   0.2724   1594.3400   1383.3201 -45.89     301.1251     0.574     0.335      2.397     75.52294  21.8531        383
 3.65   0.0490   1571.3882     92.6983 -52.64     1710.851     1.348     1.198      2.561     77.24855  19.9670        384
 7.69   0.5734   1586.6826      9.9761 -27.91     146.3829     0.911     0.211      1.803     77.29229  22.6363        385
 5.47   0.2323   1566.3284    678.9268  27.22     361.0432     0.952     0.198      1.296     77.22229  21.6561        386
 4.92   0.3364   1592.7047    566.6732 -42.45     249.3413     1.137     0.680      2.427      77.2398  22.0580        387
 3.69   0.0727   1585.8879   1108.8694 -62.92     1154.073     1.227     1.086      2.270     77.23104  20.3944        388
 3.50  99.0000   1586.4115   1069.5790  -2.91    -48.52735     1.034     0.490      1.706     77.28354  99.0000        389
 5.15   0.3480   1570.8909     33.8909  45.00     240.9488     1.199     0.289      3.793     77.20478  22.0952        390
 6.49   0.3621   1561.7128    385.2873  45.00     231.6451     0.536     0.350      2.334     77.23104  22.1379        391
 3.50   0.0940   1562.1267    861.5934  31.52     893.1497     1.172     1.030      2.202     77.32726  20.6727        392
 6.62   0.5693   1576.9572    503.6237 -87.62     147.5052     0.789     0.484      3.277     77.31852  22.6280        393
 6.21   1.2527   1571.6410   1338.6987 -47.59     66.94695     0.574     0.334      3.441     77.22229  23.4857        394
 5.06   0.4774   1576.0000   1491.1226   0.00     175.8695     0.857     0.289      1.615     77.30978  22.4370        395
 7.06   0.2931   1561.6597   1568.2986  47.12     286.1619     0.565     0.339      1.796     77.23104  21.9085        396
 3.50   0.0047   1553.5050    682.1597 -30.41     17882.96     4.479     3.633      7.667     77.23104  17.4189        397
 3.50   0.0014   1558.8643    487.7159 -47.49     59876.98     1.801     1.716      2.556     77.24855  16.1068        398
 6.35   4.5858   1555.3480   1333.3260 -45.90     18.29188     0.580     0.331      2.229      77.2398  24.8944        399
 5.02   0.1379   1532.8790    415.9926 -15.18     608.7516     1.620     1.145      3.428     77.30103  21.0889        400
 3.96   0.0281   1308.4155    669.6161  74.02     2985.163     1.434     1.345      2.609     77.29229  19.3626        401
 3.55   0.0356   1543.4832    654.6148 -49.77     2360.286     1.318     1.185      2.364     77.30978  19.6176        402
 3.55   0.0230   1542.7063    135.1601 -60.54     3649.221     1.452     1.311      2.500     77.21354  19.1445        403
 6.66   0.4633   1534.0240    457.6747  62.15     180.1622     0.922     0.209      2.419     76.86256  22.4108        404
 5.95   0.9731   1528.9998    733.1169  28.58     86.25992     0.939     0.578      2.495     77.29229  23.2105        405
 3.50  19.1123   1499.7466    844.1359 -48.28     4.390409     0.908     0.443      1.612     77.26604  26.4437        406
 6.24   0.2778   1525.5830    378.8531  22.24     302.2405     0.754     0.434      2.174     77.31852  21.8491        407
 6.25   0.6419   1521.7218   1100.9541 -75.95     130.7008     1.049     0.578      2.823     77.25729  22.7593        408
 5.56   0.1673   1515.9574   1546.9022  79.94      501.437     1.466     1.003      3.399     77.23104  21.2995        409
 3.50  99.0000   1510.0651    958.3116 -87.53    -203.9259     0.828     0.462      1.356     77.25729  99.0000        410
 6.65   1.8567   1502.2192   1412.3424  16.00     45.21495     0.821     0.360      1.525     77.30103  23.9118        411
 7.79   0.2981   1523.1821     14.5840  60.01     281.5409     0.864     0.274      2.211     77.29229  21.9261        412
 3.50   0.0026   1508.0385    269.3915 -55.20      32590.4     1.701     1.598      2.546     77.30103  16.7673        413
 6.78   0.3936   1504.0844   1313.0000  90.00     213.2782     0.886     0.289      1.987     77.29229  22.2276        414
 6.20   0.2307   1489.3719     77.5806  85.85        363.8     0.966     0.731      2.851     77.29229  21.6478        415
 4.99   0.2920   1292.1504    545.3427  -1.13     287.4287     1.120     0.644      2.415     77.28354  21.9037        416
 6.46   0.3246   1290.5000    132.7500  83.38     258.2186     1.124     0.416      2.690     77.17851  22.0200        417
 3.50   1.3198   1484.0216    719.6592  62.24     63.62338     0.941     0.203      1.264     77.31852  23.5410        418
 4.71   0.1399   1483.4548    574.7575 -38.65     599.8437     1.757     0.894      3.953     77.29229  21.1049        419
 6.81   0.4093   1476.0735    998.6126 -82.11     204.0526     0.889     0.476      2.391     76.89774  22.2756        420
 7.52   0.2494   1477.9769    199.0000  90.00     336.4271     0.879     0.289      2.297      77.2748  21.7328        421
 6.61   0.2974   1387.9235   1384.7799  78.46     282.3171     1.020     0.829      3.041     77.31852  21.9232        422
 4.66  99.0000   1489.0229    432.0000  90.00    -12.24531     0.879     0.289      1.197      77.2748  99.0000        423
 3.50   0.0979   1293.9403    412.7856  26.42     857.3538     1.239     1.029      2.261     77.29229  20.7171        424
 7.11   0.5169   1448.3494     36.9759 -28.38     162.4763     0.926     0.208      4.290       77.336  22.5230        425
 7.32   0.2483   1389.2616   1584.8925  26.84      337.886     0.875     0.216      1.437     77.25729  21.7281        426
 3.60   0.0232   1436.1575    224.7849 -42.72     3612.602     1.419     1.279      2.500     77.30103  19.1554        427
 4.11   0.0471   1416.4310   1386.5654  58.43     1778.088     1.480     1.276      2.943     77.15223  19.9251        428
 3.50   0.6280   1468.0000    555.9629   0.00     133.6372     0.783     0.289      0.781      77.2748  22.7352        429
 5.48   0.3811   1443.3254   1071.9763  27.85     220.2621     0.922     0.209      1.682     77.30103  22.1926        430
 3.50  99.0000   1331.3258    555.6967  46.21    -28.65145     0.561     0.341      0.987      77.2398  99.0000        431
 3.50   0.4652   1437.3201   1346.9047  56.08     180.2783     1.151     0.660      2.053     77.22229  22.4101        432
 3.50  99.0000   1451.0000   1263.0457   0.00    -7.706751     0.865     0.289      1.367     77.34474  99.0000        433
 5.92   0.2243   1439.5244    646.8512  46.12     374.0544     1.185     0.527      2.405      77.2398  21.6177        434
 7.69   0.4940   1450.7170     88.4736  73.12     169.8032     0.857     0.452      3.137      77.2398  22.4751        435
 3.84   0.0334   1440.6783    619.1797   6.10     2516.669     1.274     1.154      2.266     77.30103  19.5479        436
 3.50   0.4765   1455.6666    512.6857 -45.92     176.0028     0.569     0.338      0.864     77.23104  22.4362        437
 3.50  99.0000   1419.6952    618.0643  27.39    -49.12738     0.915     0.209      2.058     77.26604  99.0000        438
 7.19  18.8343   1454.9802    661.6469 -89.04     4.457747     0.804     0.478      4.480     77.30978  26.4272        439
 3.50  99.0000   1442.0642    968.6452  86.85    -222.2845     0.801     0.477      0.785     77.29229  99.0000        440
 4.60   0.1170   1401.4495   1031.5944  30.83     717.9825     1.174     1.071      2.413     77.34474  20.9097        441
 3.50   0.0006   1435.4160   1090.2712  43.09     143098.3     1.761     1.634      2.544     77.34474  15.1609        442
 5.90   0.1795   1439.5901   1271.1183  77.35     467.5062     0.917     0.669      2.532     77.28354  21.3755        443
 5.91   0.1301   1432.8444    341.4587   2.64     644.9387     1.599     1.241      4.469     77.28354  21.0262        444
 6.90   0.9651   1399.2905     84.3548 -41.84      86.9139     0.567     0.337      2.103      77.2398  23.2023        445
 5.32   0.3957   1434.6666   1456.9235 -27.17     211.9158     0.960     0.195      2.442     77.22229  22.2346        446
 4.18   0.0318   1391.2625    713.2365  33.90      2643.07     1.340     1.244      2.480     77.29229  19.4947        447
 7.00   0.6574   1412.3408   1410.0446  28.89     127.6618     0.903     0.212      1.975      77.2748  22.7848        448
 3.50  99.0000   1394.9998    993.6864  61.64    -158.5509     0.892     0.215      2.515      77.2748  99.0000        449
 4.84   0.1188   1407.0566    329.9244  75.74     706.1399     1.506     1.131      2.905      77.2748  20.9278        450
 3.50   0.3677   1423.6742    366.9551 -27.55     228.1948     0.934     0.205      1.343     77.25729  22.1542        451
 3.50   1.2957   1425.9121   1568.0879 -45.00     64.72408     1.196     0.289      5.749     77.22229  23.5223        452
 5.33   1.0409   1424.7158    273.1052   3.40     80.32088     0.841     0.449      1.308     76.98559  23.2879        453
 3.50   0.0319   1409.0771    308.3878  15.13     2633.825     1.404     1.330      2.506       77.336  19.4985        454
 5.01  12.8277   1418.6593    195.3626  44.25     6.544337     0.593     0.323      1.067     77.30103  26.0103        455
 5.57   0.1204   1412.0881    350.1978  48.06     697.2941     1.434     1.149      3.470      77.2748  20.9415        456
 6.22   0.3322   1414.7061      1.1895  79.63      188.447     1.222     0.330      3.274     57.64546  22.3620        457
 5.93   0.1276   1331.1887    386.7251  -4.13     658.3428     1.356     0.916      4.074       77.336  21.0039        458
 8.72   0.4745   1348.0000    121.0000   0.00     175.9337     0.857     0.289      4.032     76.87136  22.4366        459
 3.50   0.0010   1394.2742    114.4737 -50.74      81433.6     1.885     1.760      2.613     77.25729  15.7730        460
 3.72   0.0110   1389.6078   1428.4995 -42.94     7651.136     1.478     1.438      2.550     77.25729  18.3407        461
 3.56   0.0550   1393.0746   1038.7236  47.33     1525.047     1.179     1.143      2.301     77.24855  20.0918        462
 5.75   0.4260   1400.3478   1312.6522  45.00     197.0636     0.590     0.325      1.258     77.29229  22.3135        463
 7.74   0.6030   1382.6744    693.9766 -27.85     139.2119     0.922     0.209      4.152     77.30103  22.6908        464
 3.50   1.5174   1394.0149    410.8729  27.54     55.35704     0.931     0.578      1.221     77.34474  23.6921        465
 5.39   0.2293   1389.8885    806.6842  63.83     365.8456     0.934     0.797      2.135      77.2398  21.6418        466
 7.29   0.3340   1380.4744    319.0000  31.14     251.3573     0.827     0.301      1.842     77.30978  22.0493        467
 7.44   1.1306   1386.1432   1275.5712 -60.71     73.43139     0.949     0.197      1.985     76.44811  23.3853        468
 3.50   0.0094   1373.4695   1018.9439 -21.39     8907.104     1.599     1.509      2.560     77.25729  18.1757        469
 7.88   0.1176   1353.4500    152.7114 -80.35     709.2502     1.344     0.399      4.388     76.80978  20.9230        470
 7.36   0.4058   1371.3469    706.3060 -46.91     206.7558     0.571     0.336      2.827     77.24855  22.2614        471
 3.50   4.0070   1380.3252   1357.9755  27.84     20.94593     0.922     0.209      1.371     77.28354  24.7472        472
 7.58   1.0218   1375.3109    728.0222  -0.83     82.14272     0.830     0.463      4.036     77.28354  23.2636        473
 6.52   0.4229   1347.2411    194.2411  72.37     198.5875     0.871     0.353      2.330     77.32726  22.3051        474
 3.50   0.0027   1320.9097    659.9949 -46.41     30514.62     1.789     1.652      2.556     77.25729  16.8387        475
 7.60   0.2510   1369.3282    149.2370 -52.15     334.3948     0.530     0.347      1.841     77.29229  21.7394        476
 9.13   0.1327   1352.0409    150.6394 -61.47     628.9757     0.931     0.206      3.314     76.88015  21.0534        477
 5.03   0.2377   1346.3090    605.5245 -39.66     352.9587     1.104     0.807      3.066      77.2398  21.6807        478
 6.57   0.4043   1349.8796   1582.3936 -60.42     207.6339     0.921     0.205      3.987     77.29229  22.2568        479
 5.15   0.0783   1333.6509    107.5257 -35.84     1071.495     1.248     0.989      2.784      77.2398  20.4750        480
 3.59   1.2655   1323.0000   1076.0583   0.00     66.37575     0.814     0.289      1.278     77.34474  23.4950        481
 4.45   0.2149   1300.1038     54.2706 -30.47     390.4464     1.337     0.699      2.347     77.24855  21.5711        482
 4.51   0.1132   1305.6624    892.7546 -51.46     741.5571     1.117     0.967      2.401     77.26604  20.8746        483
 4.10   0.0216   1330.7677    655.8210   5.60     3891.363     1.565     1.428      2.843     77.26604  19.0747        484
 5.18   0.1066   1319.9031    264.2715 -51.80     787.2454     1.419     0.702      2.923     77.24855  20.8097        485
 5.52   0.0533   1294.3606    742.2517  57.16     1574.136     1.360     1.135      3.866     77.30103  20.0574        486
 4.47   0.2275   1308.0000    573.9778   0.00     368.8329     0.887     0.289      1.796      77.2748  21.6329        487
 3.50   0.0004   1299.2573    724.8708 -45.09     191092.6     2.036     1.906      2.645     77.25729  14.8469        488
 3.80   0.0073   1273.5863    610.0238 -59.51     11424.78     4.041     2.359      6.082     77.28354  17.9054        489
 4.63   0.6970   1315.0791    501.0791  45.00     120.3667     1.174     0.289      1.725     77.25729  22.8487        490
 4.22   0.8571   1303.2579   1075.2582  69.81     97.88738     0.844     0.348      0.957     77.25729  23.0732        491
 3.57   0.0114   1292.1824    762.1163 -28.30     7392.108     2.015     1.511      2.924     77.30103  18.3781        492
 4.08   0.0596   1260.2583    432.3774 -69.20     1409.749     1.936     1.766      3.991     77.31852  20.1771        493
 6.26   0.3510   1278.2513    343.6308 -72.57     239.1999     0.820     0.435      1.784     77.30978  22.1031        494
 5.07   0.1509   1229.1622   1154.0223  -5.23     556.3209     1.207     0.877      2.678     77.30978  21.1867        495
 5.95   0.8408   1269.2751    382.8085  43.64      99.8828     1.139     0.352      1.582     77.32726  23.0513        496
 3.70   0.0085   1211.5781   1279.0295  81.79     9840.531     5.603     3.438      8.873     77.30103  18.0675        497
 4.70   0.2463   1244.9656    614.1666  26.96     340.9357     0.968     0.743      2.029     77.32726  21.7183        498
 3.66   0.0248   1266.2163    807.8798 -56.88      3387.24     1.458     1.386      2.527     77.30978  19.2254        499
 3.50   0.8541   1258.9531   1338.0000  90.00     98.34235     0.865     0.289      0.856     77.34474  23.0681        500
 5.64   0.2147   1262.9882    855.0235 -23.91     390.9934     1.063     0.721      2.328     77.28354  21.5696        501
 3.50  99.0000   1240.6968    254.3258  43.79    -153.0187     0.561     0.341      0.778      77.2398  99.0000        502
 7.87   0.3672   1232.9342    180.9342  45.00      228.408     1.180     0.289      3.967      77.2398  22.1532        503
 5.85   0.1223   1238.4458     48.1274 -37.76     685.9241     1.093     0.970      3.356     77.25729  20.9593        504
 4.36   0.0451   1237.9348   1553.4390   8.62     1861.901     1.463     1.342      3.146     77.29229  19.8751        505
 4.54   0.5985   1209.0000    483.0223   0.00     140.2119     0.835     0.289      1.394      77.2748  22.6830        506
 3.50   1.4306   1243.3547   1580.0000 -27.94     58.71561     0.947     0.202      1.675     77.34474  23.6281        507
 3.50   0.0056   1215.4137    513.0160 -58.65     14985.52     1.622     1.535      2.540     77.29229  17.6108        508
 3.72   0.0086   1219.6714   1195.0002 -33.05     9815.104     1.696     1.569      2.693     77.32726  18.0703        509
 6.44   0.0859   1230.6921    599.3123   7.88     976.7187     1.457     1.283      5.902     77.22229  20.5756        510
 7.07   0.0664   1214.3230   1430.0413  24.67     1256.562     2.005     1.338      6.953     76.83618  20.3020        511
 3.50   0.2106   1181.8214    549.1692 -34.46      398.599     1.262     0.910      2.246     77.29229  21.5487        512
 7.15   0.3049   1211.4623    829.1664 -77.55     275.3036     1.111     0.582      3.053     77.29229  21.9505        513
 3.50   0.2462   1205.4451   1217.0804 -43.31     340.7682     1.099     0.651      1.949     77.25729  21.7189        514
 6.99   0.0762   1212.2479   1431.1888 -42.58     1095.526     3.016     2.153     12.689     76.88015  20.4509        515
 4.36   0.0730   1201.8033   1442.1141  61.01     1149.151     1.635     1.434      3.366     77.28354  20.3991        516
 3.50   0.3875   1214.3412     72.3177 -46.06     216.5201     0.574     0.335      0.889     77.25729  22.2113        517
 5.18   0.5626   1184.9764    211.0236  45.00      149.233     1.183     0.289      1.965     77.30978  22.6153        518
10.17   0.4618   1190.9773    534.3257  89.07     181.8044     0.821     0.469      2.942     77.30103  22.4010        519
 5.29   0.2652   1185.6387    313.6807 -46.66     316.3509     0.583     0.329      1.451     77.26604  21.7996        520
 6.25   0.3905   1164.0001      3.0001  45.00     180.9547     1.165     0.289      2.479     65.07063  22.4061        521
 7.63   0.3708   1183.6313    148.9787  -1.13     226.3458     0.794     0.482      3.610     77.29229  22.1631        522
 8.68   0.4487   1138.6825    876.0001 -28.31     187.0879     0.898     0.214      3.056     77.29229  22.3699        523
 5.88   0.3174   1158.0002    185.6608  61.91     264.6477     0.927     0.207      1.701     77.34474  21.9933        524
 3.62   0.0142   1158.7014    236.4605  16.11     5915.847     1.455     1.418      2.528     77.23104  18.6200        525
 6.99   0.2803   1167.9810   1600.0000  90.00     217.0437     0.855     0.289      2.408     56.02802  22.2086        526
 3.50   0.0016   1165.9758   1299.8174  86.14     50951.54     1.813     1.766      2.612     77.28354  16.2821        527
 5.26   0.1261   1162.6060    887.8896 -58.45     665.5363     1.377     1.026      3.152     77.25729  20.9921        528
 3.50   0.5528   1162.6899    827.6434 -42.99     151.7829     0.577     0.333      0.717     77.25729  22.5969        529
 3.50   0.0027   1139.3357    148.0973 -35.03     31654.57     1.766     1.690      2.600     77.26604  16.7989        530
 3.50   0.0051   1130.7299    183.5773 -81.24     16536.14     1.598     1.564      2.557     77.32726  17.5039        531
 5.19   0.2249   1131.9857    358.7658 -25.89     373.2619     1.187     1.012      2.332     77.30103  21.6200        532
 4.74   0.5427   1088.0424    639.6243 -61.65     154.7491     0.949     0.201      2.205     77.32726  22.5759        533
 4.59   0.0379   1120.9690    329.7617  60.06     2212.907     2.154     1.643      4.427     77.30978  19.6876        534
 5.57   0.0587   1111.4358    479.1220  -8.48     1430.044     2.185     1.546      5.834      77.2748  20.1616        535
 3.63   0.5323   1116.7325   1170.2500  44.31     157.6483     1.106     0.353      1.861     77.26604  22.5558        536
 3.50   0.0027   1095.6849    778.2009 -17.24     30678.48     1.750     1.708      2.611     77.28354  16.8329        537
 5.36   0.1745   1095.3679   1136.3704 -66.26     481.1803     0.948     0.793      2.778     77.31852  21.3442        538
 5.40   0.2620   1085.9332   1452.5042  86.19     318.4457     0.794     0.498      1.787     76.82738  21.7924        539
 7.30   9.1610   1105.6193    602.7209 -49.62     9.164798     0.571     0.333      1.984     77.30978  25.6447        540
 3.50   1.0746   1100.9541   1366.6666 -88.02      78.1056     0.816     0.471      0.990     77.28354  23.3183        541
 4.36   0.0684    987.5645    454.0034 -84.23     1227.922     1.724     1.239      3.589     77.30103  20.3271        542
 3.50   0.0085   1082.6125   1148.1832 -78.89     9893.148     1.612     1.518      2.609     77.28354  18.0617        543
 5.82   0.1056   1091.4381    468.3971 -62.60     794.8425     1.708     0.832      3.929     77.28354  20.7993        544
 3.50   0.3262   1074.6165    915.3459  46.10     257.3802     0.603     0.314      1.031     77.31852  22.0236        545
 5.09   0.1732   1079.9874    329.9958 -46.54     484.5058     1.032     0.826      2.213     77.25729  21.3368        546
 5.47   0.4463   1021.2866   1154.5532  40.27     188.0397     0.596     0.310      1.318      77.2748  22.3644        547
 3.83   0.8579    976.9110    794.2963  62.89     97.17115     0.916     0.208      0.985     76.76577  23.0812        548
 7.78   0.5846    977.7546   1280.7546  71.48     143.6199     0.859     0.351      2.121     77.30978  22.6570        549
 6.27   0.2416    979.1784    452.8413 -65.67     347.4622     0.888     0.802      2.952     77.30978  21.6977        550
 4.33   6.9441   1056.0653   1021.6884  87.52     12.08376     0.828     0.462      1.604     77.26604  25.3445        551
 4.68   0.2966    982.9170   1487.0117 -62.85     283.0102     0.831     0.504      2.484     77.30103  21.9205        552
 5.30   0.0845    981.6188    797.8758 -35.27     993.4965     1.410     1.126      3.367     77.32726  20.5571        553
 3.50   0.0028    985.6562    558.4438 -55.76     29680.73     1.715     1.611      2.582     77.28354  16.8688        554
 6.93   0.5063    999.2666    232.6800  41.32     165.6768     0.541     0.347      1.676      77.2398  22.5018        555
 5.59   0.3889   1001.6257   1025.6871 -47.35     215.8129     0.585     0.327      1.530     77.28354  22.2148        556
 3.50   0.6957    984.3691    762.6739  46.56     120.6257     0.589     0.325      1.050      77.2748  22.8464        557
 7.45   0.5480   1049.0681    960.6970  62.65     153.1107     0.915     0.209      2.893     77.26604  22.5875        558
 3.50   0.0099   1039.5236    525.3901 -39.08     8463.685     1.506     1.434      2.500       77.336  18.2311        559
 3.50   0.0020   1041.0369    633.0378 -47.26     43053.28     1.790     1.678      2.565     77.34474  16.4650        560
 4.78   0.4338   1042.6060   1095.0000   0.00     193.3914     0.778     0.489      1.881     77.25729  22.3339        561
 7.68   1.5510   1041.4164    467.0417 -31.63     54.13312     0.795     0.309      2.060     77.30978  23.7163        562
 5.43   1.4081   1001.6949    872.5889 -41.58     59.59174     0.594     0.317      0.858     77.26604  23.6120        563
 3.50   0.0042   1026.5736   1379.9995 -66.16     19806.11     1.764     1.651      2.611      77.2748  17.3080        564
 3.50   0.0489   1031.1125    302.6948  69.31     1713.126     2.541     1.701      4.316     77.20478  19.9655        565
 7.01   0.5703   1019.6667    899.3333  45.00     147.0721     0.577     0.333      2.022      77.2398  22.6312        566
 4.54   0.0892   1000.7357   1273.7418 -65.17     940.4348     1.240     1.101      2.946     77.26604  20.6167        567
 5.87   0.4640   1026.3267   1028.4069 -42.70     180.9769     0.603     0.312      1.441     77.32726  22.4059        568
 3.50   0.0049   1010.6215    813.6618 -63.49     17159.67     1.712     1.611      2.609     77.31852  17.4637        569
 3.64   0.0358   1011.9659    344.7171 -70.11     2342.422     1.372     1.135      2.424     77.28354  19.6258        570
 3.54   0.0720   1002.3831   1555.3813 -79.67     1165.058     1.259     1.135      2.476     77.29229  20.3841        571
 3.74   0.0303   1002.4560    542.4586  62.69     2770.641     1.377     1.265      2.511     77.25729  19.4435        572
 8.21   0.6630   1014.6600    453.6802 -45.91     126.5547     0.574     0.335      1.915     77.26604  22.7943        573
 6.57   0.3599   1012.6345    267.1779 -74.01     233.2319     1.490     0.546      2.789     77.30103  22.1305        574
 5.51   0.6122   1009.6518   1324.0000  28.01     137.2104     0.939     0.204      1.217     77.34474  22.7065        575
