#   1 KRON_RADIUS            Kron apertures in units of A or B                         
#   2 Y_IMAGE                Object position along y                                    [pixel]
#   3 MAG_BEST               Best of MAG_AUTO and MAG_ISOCOR                            [mag]
#   4 FLUX_BEST              Best of FLUX_AUTO and FLUX_ISOCOR                          [count]
#   5 X_IMAGE                Object position along x                                    [pixel]
#   6 THETA_IMAGE            Position angle (CCW/x)                                     [deg]
#   7 A_IMAGE                Profile RMS along major axis                               [pixel]
#   8 B_IMAGE                Profile RMS along minor axis                               [pixel]
#   9 MAGERR_BEST            RMS error for MAG_BEST                                     [mag]
#  10 NUMBER                 Running object number                                     
#  11 FLUXERR_BEST           RMS error for BEST flux                                    [count]
 4.47     94.4127  16.8576     29987.51   1125.4513 -67.03     8.432     4.008   0.0093          1     256.6354
 3.50     47.1609  19.2382     3347.518     46.6974 -18.43     3.115     2.992   0.0343          2     105.7298
 3.50     33.0301  18.1667     8980.726    450.1791   3.93     1.743     1.661   0.0071          3     58.44437
 3.50      7.9031  16.1528      57396.8    753.4478   2.44     1.983     1.923   0.0013          4      67.7918
 6.18     12.8639  21.6871     350.8778    858.4266  50.98     1.289     0.732   0.1817          5     58.70942
 3.50      7.2113  22.6733      141.479   1284.7981 -46.48     0.737     0.563   0.1764          6     22.97581
 6.92      6.0000  22.7412     132.9006   1058.0139   0.00     0.847     0.289   0.2616          7      32.0113
 7.55      4.2469  21.2601     519.9553    947.4111  45.53     1.314     0.771   0.1397          8     66.86942
 4.12      3.8348  20.7577     825.9088     72.4608 -16.44     1.246     1.182   0.0617          9     46.95431
 6.10      2.8667  20.9049     721.2046    936.5207 -10.63     1.625     1.134   0.1038         10     68.92742
 5.45      4.6532  23.1279     93.07849    706.7065 -47.69     0.565     0.339   0.2758         11     23.64191
 4.68      1.4142  22.1676      225.397   1254.7991  -3.78     1.168     0.488   0.1446         12     30.00857
 3.50     20.2485  21.8183     310.9413    234.9529  16.47     1.096     0.906   0.1200         13      34.3509
 6.38     27.8961  21.1432     579.0786    906.5863  84.86     1.356     1.278   0.1554         14     82.84045
 7.83     24.3722  21.3557     476.1373    897.5001  53.33     1.032     0.802   0.1613         15     70.70648
 7.50     21.4723  22.5497     158.5284    123.0066 -32.35     0.789     0.316   0.2589         16      37.7942
 4.06     69.3732  18.5236     6464.671   1463.3916  74.90     3.177     2.756   0.0199         17     118.4719
 7.74     26.3235  22.6137      149.454    417.3286 -44.76     0.571     0.337   0.2430         18     33.43471
 3.72     32.4382  21.8109     313.0657   1515.2990  30.41     1.107     0.846   0.1223         19     35.24328
 3.50     33.1804  22.8790     117.0579      7.1900  44.59     0.766     0.561   0.2193         20     23.64191
 3.50     47.1839  22.9341     111.2689   1049.4036  70.29     0.741     0.448   0.1884         21     19.30354
 8.32     47.9779  21.6785     353.6757    229.0076   1.06     0.613     0.605   0.1549         22      50.4607
 4.81     62.2807  21.1932     552.9849   1014.5557  61.95     1.392     1.123   0.1179         23     60.01714
 6.14     52.4638  22.2337     212.0815    204.7005   8.76     0.973     0.482   0.2173         24     42.43853
 6.35     63.3292  20.7103     862.7506    894.4313  32.57     1.490     1.316   0.1105         25     87.75506
 3.50     95.1854  16.5079     41385.53    917.0939  -9.20     2.432     1.965   0.0020         26     75.99811
 6.68     63.8519  21.5719     390.1409    889.1374  18.53     1.225     0.942   0.1351         27     48.54383
 3.99     65.5806  21.5779     388.0021    971.4410  42.08     1.049     0.908   0.1069         28      38.2028
 3.50     77.6456  19.9530      1733.01    183.8656  35.74     1.922     1.615   0.0386         29     61.54974
 4.01     80.3084  20.7375     841.4159    542.7675 -74.51     1.942     1.344   0.0823         30     63.77962
 3.50     94.6567  19.0600     3944.674    347.2999   1.29     1.577     1.515   0.0146         31     52.86492
 6.42     88.6536  21.7368     335.1934   1026.2157  38.54     0.937     0.744   0.1713         32     52.86492
 3.75     93.2241  20.9729     677.3673    737.8329  -2.89     1.220     1.140   0.0698         33     43.52224
 8.20     87.6823  21.6260     371.1992   1076.8492 -12.12     1.079     0.416   0.1597         34     54.59865
 4.37    106.6409  20.1189     1487.372    974.6325 -73.93     2.125     1.886   0.0628         35      85.9676
 3.50    106.5787  19.3531     3011.272     47.9887 -15.76     1.548     1.459   0.0187         36     51.97637
 8.45    104.3943  20.8115     785.9718    265.9957  54.86     1.476     0.923   0.1342         37     97.15901
 9.66     94.4939  21.9611     272.6173   1248.5023  44.92     0.506     0.494   0.1935         38     48.57951
 3.50    100.2884  21.6218     372.6288    357.1915   0.39     1.135     0.906   0.1014         39     34.79995
 3.50     96.5149  22.8330     122.1226    590.4865 -44.94     0.510     0.489   0.1717         40     19.30354
 5.87     99.9511  22.7346     133.7032    173.4704  86.25     0.780     0.498   0.2968         41     36.54101
 5.94    110.1582  21.4872     421.8071   1458.8864 -14.43     1.146     0.934   0.1572         42     61.04315
 4.28    115.3070  21.1670     566.4995    925.0088 -50.53     1.258     1.145   0.0973         43     50.76745
 3.70    125.7528  19.3825     2930.834    300.9926 -16.30     1.591     1.521   0.0210         44     56.55421
 4.21    118.2691  21.0687     620.1667     79.9862  35.99     1.594     1.331   0.1069         45     61.04315
 7.06    113.9025  22.3997     182.0259     66.6563 -18.40     0.921     0.676   0.3240         46     54.31354
 8.59    112.3366  22.3272     194.5837   1000.3244 -45.54     0.575     0.335   0.2063         47     36.96346
 3.50    151.1229  17.2929     20082.72     45.8490 -52.15     1.949     1.851   0.0040         48     74.21728
 3.50    212.4886  13.8407     482747.7    967.6542  40.01     3.048     2.888   0.0002         49     102.2966
 9.18    119.3316  22.2813     202.9882    231.3272 -45.20     0.574     0.335   0.2066         50     38.60708
 4.90    130.0126  21.0493      631.364     55.4443  37.97     1.241     1.021   0.0949         51     55.16446
 5.54    133.5662  21.3746     467.9053   1498.7036  -0.10     1.148     0.959   0.1325         52     57.10064
 5.33    140.3865  21.0332     640.7943    218.2452 -66.34     1.301     1.032   0.1035         53     61.04315
 4.32    158.7005  18.7584     5207.467     50.5213  14.00     2.556     2.201   0.0163         54     78.02139
 7.56    131.6804  22.9058     114.2007   1315.2950  46.43     0.554     0.344   0.3135         55     32.96707
 4.48    152.9119  21.5954     381.7885    879.5300 -60.81     1.011     0.961   0.1228         56     43.16402
 3.72    173.7126  18.9210     4483.402    557.3240  47.42     2.364     2.321   0.0209         57     86.14801
 4.23    183.8768  18.6723     5637.612   1263.0786  -7.93     2.523     2.381   0.0197         58     102.2966
 5.13    166.4995  21.1979     550.6095    746.5167 -74.63     1.407     1.236   0.1300         59     65.93414
 4.28    164.1927  21.4834      423.303   1521.5858  74.81     1.105     0.950   0.1126         60     43.87753
 5.24    162.8947  21.6365     367.6064   1154.2748  52.79     0.950     0.930   0.1445         61     48.89806
 4.89    172.7050  21.2548     522.5159    945.0700 -51.52     1.571     1.253   0.1395         62      67.1012
 3.50    185.3256  18.0221     10259.89    378.2397 -28.54     1.786     1.762   0.0064         63     60.78827
 7.50    164.1903  22.0462     252.0686    759.0225  37.12     0.938     0.473   0.2079         64     48.25885
 7.24    168.6113  21.7754     323.4602   1158.9104  47.54     1.111     0.480   0.1735         65     51.67679
 3.94    174.5828  21.6781     353.7859    961.8307  82.06     0.977     0.930   0.1135         66     36.96346
 3.50    237.3644  14.4161     284153.1   1389.7841 -41.09     2.309     2.169   0.0003         67     77.61527
 6.87    181.0341  22.5181     163.2181    461.1556 -54.27     0.926     0.470   0.2966         68     44.57961
 6.16    196.4339  19.8528     1900.505   1066.2972 -20.88     2.031     1.821   0.0666         69     116.6228
 6.78    188.9588  21.2249     537.0964   1070.1791 -24.62     1.548     1.057   0.1186         70     58.67005
 3.50    206.1323  18.8319     4866.762     21.5627 -56.80     1.638     1.562   0.0124         71     55.44519
 3.50    201.2601  20.0967     1518.171    185.9180   6.51     1.443     1.361   0.0348         72     48.57951
 5.23    202.1462  20.9581     686.6649    412.4117  66.29     1.510     1.319   0.1149         73     72.65588
 4.88    201.9580  21.8303     307.5249   1294.5009 -85.51     1.212     0.838   0.1693         74     47.93604
 5.93    205.3313  20.3367     1217.135    353.9930  16.74     1.813     1.438   0.0845         75     94.73168
 3.50    224.9422  17.2839     20251.48   1093.4563 -59.44     1.814     1.775   0.0034         76     62.79834
 3.99    218.7306  19.3690     2967.666   1020.6931  -7.62     2.094     1.983   0.0293         77     80.17361
 4.87    216.3218  20.4625     1083.954   1198.5570  55.51     1.841     1.567   0.0819         78     81.70818
 6.51    203.9402  22.5850     153.4601    452.2255  87.50     0.695     0.417   0.2431         79      34.3509
 4.60    268.1983  18.5559     6275.302    140.7266  65.34     5.964     2.061   0.0275         80     158.9859
 3.82    210.1299  22.3076     198.1298    908.8029  49.34     0.821     0.649   0.1465         81     26.72454
 3.50    223.1118  20.6357     924.1407   1178.3679  -5.05     1.281     1.210   0.0507         82     43.16402
 6.18    213.5688  22.5533     158.0151   1061.7803  21.01     0.736     0.449   0.2452         83      35.6811
 3.89    286.2726  17.3791     18550.42   1328.5978 -54.54     4.071     3.479   0.0085         84     144.4545
 7.11    232.5957  19.8902      1836.21    654.3945  19.87     2.685     1.375   0.0796         85      134.549
 3.53    242.9650  18.5688       6201.5    566.6058  37.93     1.679     1.645   0.0100         86      57.3719
 3.55    236.5731  19.6786     2231.223    836.9667   6.66     1.498     1.372   0.0247         87     50.76745
 3.50    258.8932  17.7195     13558.43   1426.9111 -51.38     2.259     1.731   0.0055         88      68.7018
 4.05    234.9387  20.7278     848.9254    880.2339 -62.63     1.346     1.177   0.0646         89      50.4607
 5.69    244.0083  19.4630     2721.529    660.8113  37.74     2.162     1.852   0.0449         90       112.42
 3.50    247.6646  18.8291     4879.499    577.4250  67.60     1.633     1.559   0.0122         91     54.59865
 6.01    254.1846  19.3233     3095.135   1369.7998 -47.94     2.427     1.671   0.0420         92     119.7753
 6.17    241.2870  20.2359     1335.483    369.2222  30.13     1.736     1.378   0.0769         93     94.56764
 7.66    228.4811  22.5833     153.6986    906.4860  44.84     0.514     0.484   0.2728         94     38.60708
 7.03    242.2005  20.6733      892.649    966.9060 -61.08     1.771     0.956   0.1108         95     91.05461
 4.36    249.6382  21.3522     477.6393   1163.8445 -84.59     1.850     0.892   0.1261         96     55.44519
 6.57    255.1234  20.4727     1073.769     76.2674 -83.10     2.133     1.143   0.1024         97     101.2286
 6.82    243.4088  21.3364     484.6613   1339.8333  80.45     1.073     0.852   0.1440         98     64.26465
 3.50    251.5225  21.5534     396.8756    914.5157  22.95     1.473     1.146   0.1220         99     44.57961
 6.16    261.7776  20.6997       871.17    410.9438 -50.42     1.595     1.170   0.1035        100     83.02766
 4.50    296.8800  18.6004     6023.264    375.0334  30.08     5.932     2.233   0.0291        101     161.4088
 3.81    279.1085  19.1359     3678.164   1128.7777 -37.13     2.416     1.730   0.0228        102     77.21416
 4.37    264.9361  21.4678     429.4254    271.6232 -73.63     1.138     0.946   0.1119        103     44.22997
 6.46    263.5041  21.9746     269.2573    721.2064 -89.49     0.987     0.733   0.2179        104     54.02692
 3.50    281.3364  19.1889     3503.069    955.4014 -28.15     1.574     1.506   0.0163        105      52.5704
 3.50    266.9327  22.0952     240.9386    767.3180 -16.25     0.981     0.732   0.1305        106     28.95531
 3.50    286.3484  19.7124     2162.894    743.6095  40.15     1.460     1.383   0.0249        107     49.52903
 7.40    278.8119  22.2316     212.5065   1454.3896 -71.06     0.759     0.445   0.2187        108     42.80281
 6.29    279.6088  22.4806     168.9545    884.7463  18.33     0.745     0.451   0.2293        109      35.6811
 3.73    313.6259  18.5731     6176.943    792.7342  28.19     2.366     2.017   0.0141        110     80.36704
 7.37    289.1764  21.7550     329.6189   1177.8871  42.69     0.851     0.670   0.1799        111     54.59865
 7.07    292.0175  22.1627      226.428   1277.2856  87.01     0.742     0.692   0.2420        112      50.4607
 5.13    298.8221  21.2299     534.6359    863.1149  17.37     1.474     1.048   0.1291        113     63.53572
 3.50    374.0452  14.3023     315546.4   1263.0072 -33.49     2.333     2.210   0.0003        114     78.01432
 5.61    315.0114  20.8446     762.3605    803.5080  31.74     1.723     1.262   0.0786        115      55.1791
 3.50    338.2123  17.1414     23091.58    596.3755 -66.87     1.875     1.854   0.0030        116     64.50579
 3.50    332.7775  18.2112     8620.009    789.3983 -34.10     1.680     1.646   0.0072        117     57.10064
 6.26    311.5056  22.3934     183.0769   1549.0146  -1.35     0.805     0.500   0.2290        118     38.60708
 7.97    317.2074  22.2205     214.6871   1061.6068 -71.74     0.763     0.449   0.2392        119     47.28382
 5.00    323.1175  21.0729     617.7981    833.2548  -4.62     1.149     1.073   0.0965        120     54.88228
 5.46    323.2687  20.7612     823.2391    289.3503  -5.53     1.242     1.080   0.0835        121     63.29089
 3.50    328.8228  20.4942     1052.751    720.6425 -72.46     1.375     1.253   0.0460        122     44.57961
 3.50    335.3305  19.9152     1794.425   1146.0575 -32.82     2.232     1.734   0.0414        123     68.47543
 6.41    327.7767  21.3872     462.4967    157.4338  64.09     1.391     0.861   0.1624        124     69.15231
 7.76    322.0162  22.5867     153.2223   1454.0000  90.00     0.864     0.289   0.2765        125     39.00716
 5.74    335.9540  20.7531     829.3636   1038.2914 -51.54     1.658     1.399   0.1123        126      85.7868
 5.32    334.7170  20.7584     825.3486    661.8060   3.32     1.727     1.269   0.1027        127     78.01432
 3.50    361.4441  18.9287     4451.806    708.8192 -68.97     2.479     2.197   0.0196        128     80.36704
 3.50    329.3398  23.6356     58.31287    220.3325 -45.30     0.580     0.332   0.2542        129     13.64966
 4.02    375.0766  17.9543     10921.08   1364.3392   5.19     3.340     2.486   0.0114        130     114.3372
 6.59    349.8664  22.2832     202.6344   1576.3282 -74.94     1.358     0.321   0.2313        131     43.16402
 3.50    347.4366  22.4298      177.036   1599.3663  84.48     0.950     0.617   0.1409        132     22.97581
 5.25    348.1754  22.4809     168.9009     40.1509  47.67     0.757     0.568   0.2209        133      34.3509
 3.50    363.7216  19.6550     2280.419    504.4440  69.04     1.459     1.405   0.0239        134     50.15207
 4.73    360.6756  20.7490     832.5237    640.8969 -84.53     1.210     1.133   0.0727        135     55.72452
 7.26    359.7431  20.7982     795.6774   1278.9045 -66.17     1.174     1.052   0.1089        136     79.78536
 5.16    357.1693  22.6490     144.6764   1291.4176  69.78     0.750     0.447   0.2174        137     28.95531
 6.49    357.3419  21.9126     285.0768   1050.6553 -12.61     1.135     0.614   0.2036        138     53.44908
 7.49    363.0229  21.2019     548.5717     99.2650  89.07     1.168     0.847   0.1447        139     73.08202
 7.33    359.0027  22.2141     215.9562   1095.3845 -89.96     0.875     0.486   0.2361        140     46.95431
 7.56    369.7059  20.3961     1152.307   1341.3179  34.94     2.012     1.027   0.1012        141      107.333
 8.28    365.7765  20.8920     729.8188   1284.6234 -65.85     1.036     0.935   0.1199        142        80.56
 4.23    451.0447  17.6547     14392.02   1220.1050  54.56     7.010     2.619   0.0135        143     178.7533
 6.71    368.1672  21.6676     357.2301    268.3489 -52.80     1.060     0.678   0.1703        144     56.00245
 3.92    401.3127  18.3164     7824.206    825.4194  45.88     3.281     2.709   0.0161        145     115.6871
 3.55    389.2865  18.5029     6589.317   1463.5734  -5.81     1.789     1.699   0.0100        146     60.78827
 6.34    380.2635  20.6712     894.3944    959.4734 -67.00     2.181     1.119   0.1182        147     97.31869
 7.87    368.8943  21.6113     376.2388    643.5867  27.32     1.151     0.577   0.1798        148      62.3019
 3.72    377.3903  21.0342     640.1793    163.5931  83.29     1.331     1.253   0.0813        149     47.93604
 3.89    385.7827  20.1771     1409.793    867.8937  84.36     1.357     1.232   0.0377        150     48.89806
 6.27    377.7131  21.4166     450.1415    430.5041 -24.91     1.601     0.716   0.1596        151      66.1692
 6.35    383.5173  20.5950     959.4194   1278.0845  88.46     1.306     1.166   0.0879        152     77.61527
 3.55    392.8902  19.3728     2957.171   1317.9773  52.61     1.645     1.444   0.0201        153     54.59865
 3.50    413.7154  17.3186     19613.34     67.4630 -60.35     1.877     1.839   0.0035        154     63.77962
 3.50    417.2204  16.9671     27112.58   1308.3070  17.11     1.920     1.876   0.0026        155     65.46149
 5.35    391.8077  21.4290      445.053   1206.6018 -76.03     1.191     0.958   0.1387        156     56.82808
 3.50    719.8947  15.3560     119568.2    199.2038 -41.88    13.551    10.306   0.0037        157     408.5029
 5.07    393.7631  22.7246     134.9404     18.9677  -1.50     0.688     0.425   0.2151        158     26.72454
 3.50    458.0837  15.5884      96527.5     12.6700 -49.85     2.253     2.053   0.0008        159     74.55432
 3.92    413.4766  21.4634     431.1455    665.7608  68.88     1.487     0.880   0.1114        160     44.22997
 3.50    416.9565  21.6388     366.8458   1158.3895  81.84     1.470     1.033   0.1267        161     42.80281
 5.02    410.1406  21.5602     394.3855    750.1879   9.17     1.114     0.725   0.1228        162     44.57961
 5.64    421.2555  21.3806     465.3207    102.5200  61.15     1.205     1.020   0.1442        163     61.80148
 6.17    419.6847  22.2667     205.7442    889.6652 -66.61     0.907     0.718   0.1839        164     34.84449
 6.45    421.7512  21.4250      446.686    893.2390 -21.82     1.314     0.898   0.1659        165     68.24831
 6.55    425.8313  21.5330     404.3763    962.7754 -80.47     1.045     0.847   0.1612        166     60.01714
 4.90    439.7298  19.9953     1666.808    908.9675 -25.61     1.890     1.699   0.0568        167     87.22266
 3.50    466.1190  16.2626     51874.91   1075.1609 -32.82     2.018     1.954   0.0014        168      67.7918
 5.59    428.7175  22.4198      178.676   1431.8264 -31.22     0.864     0.605   0.2442        169     40.18352
 8.66    432.2888  21.7673     325.8862   1516.0232  -8.46     0.723     0.673   0.2000        170     60.01714
 7.01    433.7692  22.3421     191.9375    415.6180  72.67     0.747     0.453   0.2252        171     39.79527
 3.50    439.5482  21.3442     481.1879    815.4628  33.56     1.225     1.095   0.0898        172     39.79527
 3.89    449.0450  20.1932     1389.029    290.8685 -32.56     1.440     1.299   0.0418        173     53.44908
 3.96    450.0580  19.8827     1848.902    174.6930   9.52     1.794     1.456   0.0372        174     63.29089
 5.03    448.5518  21.8028     315.4077   1378.3848 -62.47     1.098     0.709   0.1535        175     44.57961
 6.63    452.0868  21.1853     557.0411    966.7126  51.79     1.085     0.975   0.1308        176      67.1012
 5.32    457.6748  20.7413     838.4725   1159.9452  81.80     1.617     1.344   0.1008        177     77.81506
 7.48    445.6780  22.9862     106.0493   1485.3439  44.05     0.577     0.333   0.3228        178     31.52255
 8.33    445.6734  22.5008     165.8345    376.6509 -44.08     0.581     0.331   0.2365        179     36.11361
 3.94    462.5902  19.5386     2538.458    275.6967   0.35     1.827     1.463   0.0274        180      64.0226
 6.02    454.2875  22.2174      215.295    478.9831 -14.32     0.732     0.666   0.2122        181     42.07109
 4.32    465.1969  20.8827     736.0409   1190.5952 -13.54     1.366     1.198   0.0814        182     55.16446
 5.75    462.4704  21.2323     533.4297   1091.8141   0.80     1.161     0.967   0.1222        183     60.01714
 7.91    459.6889  23.0731      97.8938   1099.6337 -42.76     0.581     0.330   0.3811        184      34.3509
 6.44    462.9705  22.2731     204.5376   1263.0303 -45.42     0.898     0.532   0.2311        185     43.52224
 3.50    488.4069  18.1422     9186.123    574.1901  14.25     1.761     1.641   0.0070        186     59.23597
 5.42    473.1105  21.9888      265.765    250.7760  62.62     1.279     0.550   0.1864        187     45.61248
 3.92    478.8407  20.2145     1362.103   1017.6990  32.97     1.410     1.333   0.0431        188     54.02692
 4.91    474.3923  21.3950     459.1942   1138.5402  20.56     1.229     0.936   0.1243        189      52.5704
 8.42    476.2465  22.2222     214.3412   1162.2501  71.10     0.859     0.351   0.2276        190     44.92654
 6.33    479.8654  22.2929     200.8413   1571.2762 -17.61     1.048     0.546   0.2503        191     46.28826
 4.86    478.6742  23.0610       98.995    219.6721 -44.91     0.572     0.336   0.2118        192     19.30354
 3.50    505.4083  18.0723     9796.529   1142.3480 -37.17     1.754     1.707   0.0067        193     60.27528
 3.50    557.4858  17.2626     20651.99   1456.4041 -85.58     1.868     1.858   0.0034        194     64.26465
 3.50    497.8973  21.1848     557.2888    604.8098  73.73     1.557     1.321   0.0965        195     49.52903
 3.94    489.5105  22.9658     108.0597    769.5135 -45.64     0.501     0.498   0.1940        196     19.30354
 6.09    509.2844  19.5503     2511.303    999.6625  34.56     1.878     1.755   0.0471        197     108.9126
 5.95    500.9969  20.6330     926.4161   1011.0789  -7.59     1.946     1.093   0.1012        198     86.32805
 3.88    506.7611  20.3803     1169.152    538.5916 -46.71     1.331     1.280   0.0469        199      50.4607
 4.64    536.8422  18.3083     7882.707    353.0277  -6.58     2.927     2.803   0.0181        200     131.1599
 4.43    530.4689  19.0565     3957.137   1006.4338 -32.62     3.333     2.123   0.0318        201     115.8212
 4.34    532.7872  19.7427     2103.485    671.9299  67.38     2.482     1.690   0.0365        202     70.65955
 5.77    515.0647  21.0418     635.7235   1524.5029  43.62     1.155     1.062   0.1069        203     62.55061
 6.10    513.0201  22.7779     128.4819    164.0000  90.00     0.859     0.289   0.2536        204     30.00857
 3.50    547.5416  17.2840     20248.85    374.1339 -74.44     1.992     1.893   0.0036        205     67.33219
 4.39    518.2790  21.5905     383.5474   1431.6025  -7.67     0.981     0.919   0.1159        206     40.94899
 5.07    539.9126  19.8214     1956.302    674.2069 -44.53     2.487     1.668   0.0405        207     72.90153
 3.50    532.7383  20.8875     732.8254    654.4314 -13.30     1.289     1.121   0.0607        208     40.94899
 3.50    561.8504  16.6962     34794.61    583.2339  25.76     1.888     1.857   0.0020        209      64.9854
 8.60    524.7182  21.9556     274.0112   1374.9868  -0.82     0.679     0.450   0.1874        210     47.28382
 8.08    525.6044  22.2375     211.3501    331.1867 -19.31     0.762     0.444   0.2430        211     47.28382
 5.94    528.8715  22.4790     169.1919    229.1235 -49.93     0.753     0.572   0.2426        212      37.7942
 6.14    533.1379  21.8095     313.4724   1227.7197 -14.57     1.024     0.751   0.1821        213      52.5704
 3.50    566.7295  16.9724     26979.69    956.1602 -21.55     1.898     1.874   0.0026        214     65.22388
 5.97    536.7968  22.6347     146.5995    468.3878 -71.16     0.767     0.443   0.2643        215      35.6811
 9.26    541.7950  21.4519     435.7494   1099.5922  70.86     0.771     0.446   0.1318        216     52.86492
 3.50    573.1076  16.9985     26338.22   1028.6041 -44.41     1.924     1.902   0.0027        217      66.1692
 5.01    556.3446  20.0157     1635.731   1073.6241 -45.92     1.536     1.400   0.0477        218     71.79602
 3.50    549.0526  21.4180     449.5535    756.0723  61.77     1.201     1.104   0.0952        219     39.40318
 5.15    553.8810  21.7864      320.208      3.6394  32.48     1.065     0.961   0.1592        220     46.95431
 8.21    546.5253  22.1734     224.1959   1397.5427 -59.29     0.500     0.498   0.1946        221     40.18352
 3.50    556.8666  22.2649     206.0725    271.1406  47.75     0.831     0.664   0.1346        222     25.53618
 6.99    554.3266  22.7590     130.7408   1164.6796  45.30     0.569     0.338   0.2405        223     28.95531
 4.41    570.3473  20.4330     1113.795   1513.9795 -34.99     1.495     1.249   0.0585        224     60.01714
 6.45    562.5316  21.9045     287.1997    231.6833 -32.09     0.947     0.678   0.1931        225     51.07236
 4.08    579.8500  19.2899     3191.762   1365.8766  51.11     1.601     1.546   0.0214        226     62.79834
 6.48    562.2994  22.8320     122.2347    757.6545  42.74     0.567     0.338   0.2573        227     28.95531
 7.26    568.9766  21.5447     400.0656   1328.5712 -29.92     1.048     0.663   0.1629        228     60.01714
 3.50    664.6186  13.8007     500877.8   1486.7719 -44.51     2.438     2.292   0.0002        229     81.13612
 5.59    585.4757  20.8458     761.5117    272.9999  75.25     1.681     1.447   0.1226        230      85.9676
 6.57    584.7122  20.6417     918.9984   1527.9791 -46.52     1.663     1.287   0.1123        231     95.05891
 8.38    575.5018  21.8006     316.0669    629.9894  -0.56     0.821     0.500   0.1796        232     52.27423
 4.68    613.2316  18.8612     4737.142    572.2295  76.04     2.753     2.396   0.0272        233     118.4719
 4.98    596.0724  20.1683     1421.298   1054.8129 -30.04     1.526     1.374   0.0545        234      71.3622
 4.76    984.0365  20.8404     765.2937    173.7719 -28.46     1.311     1.117   0.0806        235     56.82808
 6.65   1598.0112  21.8060     314.4899   1445.3649 -38.15     1.007     0.627   0.1621        236     46.95431
 4.75   1598.7107  23.2035     86.81445   1307.6581 -42.20     0.561     0.340   0.2415        237     19.30354
 7.94   1595.3134  21.2956     503.2375    257.7211  45.02     0.964     0.740   0.1376        238     63.77962
 5.29   1594.8629  22.0344     254.8147    335.9893  84.75     0.925     0.751   0.1809        239     42.43853
 4.51   1583.5969  18.2421       8378.4    831.3826 -77.94     4.143     3.372   0.0214        240     164.7411
 7.19   1589.6140  21.4836     423.2001   1460.7354  81.48     1.113     0.952   0.1897        241     73.92693
 8.87   1590.3269  22.3204     195.8093   1530.3248 -45.10     0.571     0.337   0.2141        242     38.60708
 3.50   1584.3572  21.7832     321.1525    908.5189  57.80     1.212     0.847   0.1177        243     34.79995
 4.41   1583.1919  22.1299      233.369    370.4655  39.27     1.044     0.833   0.1870        244     40.18352
 6.72    849.1667  21.1336     584.1826   1509.8450 -82.14     1.947     0.693   0.1435        245     77.21416
 4.57    844.4033  19.7229     2142.175     98.9329 -81.96     3.650     1.456   0.0524        246     103.3536
 3.50    874.4470  18.8764      4671.51     39.4187  21.25     1.629     1.579   0.0128        247     54.88228
 3.50    846.2758  21.4364     442.0223   1142.0671  13.92     1.141     1.019   0.0908        248     36.96346
 3.50    874.3253  20.7349     843.3755    845.9553 -33.12     2.015     1.267   0.0721        249     56.00245
 4.32    848.7893  19.7562     2077.414    646.7096 -87.03     2.307     2.031   0.0482        250     92.24049
 7.46    839.3712  21.8951     289.6987   1520.2462 -11.74     1.575     0.369   0.2089        251     55.72452
 6.79    835.0080  20.3140     1242.786   1371.5316  77.70     1.464     1.244   0.0784        252     89.68012
 6.67    836.5049  22.8852     116.3881    955.9969 -32.71     0.780     0.319   0.2941        253     31.52255
 5.89    826.0537  21.5022     416.0121    342.8156 -42.75     1.480     0.902   0.1764        254     67.56239
 4.46    823.0322  22.4128     179.8364   1599.5962 -88.85     0.777     0.491   0.1467        255     24.28975
 3.50    879.3613  17.4532     17326.07   1341.0470 -23.46     1.995     1.894   0.0042        256     66.63683
 9.08    821.5098  22.4299     177.0256   1332.4580 -48.46     0.506     0.492   0.2756        257     44.92654
 4.33    818.7234  20.3220     1233.622   1030.1981  65.07     1.415     1.334   0.0515        258     58.44437
 7.19    819.6550  22.4980     166.2621    524.6809 -46.13     0.576     0.334   0.1994        259     30.52157
 4.44    816.8698  20.5829      970.176    819.4221 -28.82     1.298     1.270   0.0633        260     56.55421
 6.20    794.0475  20.6566     906.4758    434.8087  54.25     1.669     1.305   0.1081        261     90.19801
 7.82    795.5040  22.3833     184.7961   1284.5521 -66.87     0.501     0.497   0.2361        262     40.18352
 5.06    793.0139  20.7413     838.4253    938.2761 -54.24     1.720     1.274   0.0947        263     73.08202
 7.39    789.0296  20.3176     1238.626    868.1213  58.74     1.744     1.081   0.0877        264     99.99407
 3.83    792.0107  21.9610      272.651   1464.2678  47.29     0.914     0.809   0.1313        265     32.96707
 3.50    786.9997  16.8496     30209.62    527.5715 -38.55     1.969     1.885   0.0024        266     66.63683
 3.50    776.6987  14.8455     191332.6    727.8635 -35.58     2.282     2.165   0.0004        267     76.81094
 6.07    786.7769  21.5722     390.0659   1107.9977  75.71     1.210     0.960   0.1782        268      64.0226
 3.82    786.9265  21.4129     451.6912    218.9024 -80.94     1.292     1.112   0.1088        269     45.27081
 5.55    784.4888  21.3182     492.8771    374.6701 -23.43     1.576     0.867   0.1411        270      64.0226
 3.86    784.8297  20.9344     701.8276    184.4231  -6.24     1.299     1.102   0.0716        271     46.28826
 3.96    780.7413  19.5883     2424.747    992.9757 -25.27     1.582     1.477   0.0268        272     59.75788
 3.50    770.7085  16.2184     54029.57    369.4375 -84.39     2.068     1.995   0.0014        273     70.48656
 6.19    780.1841  21.9832      267.134    127.0010 -89.88     0.981     0.750   0.2125        274     52.27423
 7.53    787.2905  21.0218     647.5361   1377.4557  24.71     1.171     0.938   0.1305        275     77.81506
 6.22    765.7124  21.0141     652.1857   1408.9180  84.25     1.596     1.028   0.1309        276     78.60911
 6.57    762.4935  21.4371     441.7509   1360.3601  34.12     1.197     0.857   0.1603        277     65.22388
 6.25    760.6926  22.4151     179.4485   1040.5757  31.12     0.967     0.545   0.2677        278     44.22997
 6.08    758.1440  22.3434     191.7061   1065.5687 -12.62     0.874     0.617   0.2466        279     43.52224
 4.26    756.4565  21.4598     432.5864    889.9158 -84.94     1.045     0.997   0.1065        280     42.43853
 8.19    754.4973  21.4882     421.4102   1275.8314  50.13     1.099     0.737   0.1889        281     73.29416
 6.73   1401.5085  22.7984     126.0724   1083.4974 -44.93     0.513     0.487   0.2715        282     31.52255
 5.68    735.3345  21.6171     374.2632   1080.7650  53.44     1.091     0.867   0.1584        283     54.59865
 5.86    731.1986  21.3843     463.7511   1468.8861  60.31     1.318     0.892   0.1459        284      62.3019
 4.51    731.9658  22.9191     112.8109   1340.0000  90.00     0.853     0.289   0.2212        285     22.97581
 3.68    728.3334  20.2613     1304.582    127.9870  69.34     2.006     1.710   0.0561        286     67.33219
 3.50    727.3524  20.0967     1518.192    624.3361 -11.04     1.463     1.326   0.0345        287     48.25885
 5.08    724.2869  19.5613      2485.84    970.7228 -81.69     2.769     1.694   0.0476        288      109.055
 5.61    741.9032  19.8774     1857.996    918.6675 -43.74     2.264     1.568   0.0609        289      104.251
 6.76    725.8743  21.0285     643.5543   1433.8495 -46.55     1.345     0.907   0.1233        290     73.08202
 6.52    723.4359  22.1921     220.3827   1319.2839  -8.81     1.019     0.476   0.2180        291     44.22997
 3.50    719.7520  21.2881     506.6934    659.0257  50.68     1.155     1.118   0.0827        292     38.60708
 4.49    719.3348  23.3804     73.76392    725.3120 -46.10     0.569     0.338   0.2842        293     19.30354
 6.55    742.9020  20.9747     676.2489   1432.5208  79.27     1.277     0.997   0.1180        294     73.50568
 7.52    742.6771  20.8184     781.0059   1293.7584 -70.09     1.441     1.018   0.1252        295     90.02571
 3.50    709.9128  18.8377     4840.949   1354.5731 -74.25     1.596     1.544   0.0121        296     53.73878
 3.95    708.1457  21.4735     427.1639    403.5540  16.32     1.376     1.079   0.1194        297     46.95431
 6.56    708.4860  22.8048      125.338    778.0148  31.86     0.805     0.310   0.2731        298     31.52255
 5.58    706.4850  22.7756     128.7585    848.4735  48.21     0.502     0.497   0.2303        299     27.29933
 3.68    702.3450  19.2768     3230.485   1040.3937  58.64     1.597     1.494   0.0187        300     55.72452
 3.50    698.0961  18.0185     10294.69     96.7310  -5.81     1.785     1.718   0.0064        301     60.27528
 7.93    702.2547  21.6321     369.1174     14.0408   4.23     0.728     0.692   0.1623        302     55.16446
 7.82    700.7561  21.6645     358.2667     19.3754 -73.23     0.979     0.643   0.1843        303     60.78827
 6.75    698.4558  21.7538      329.965    910.0122 -63.26     1.034     0.659   0.1834        304     55.72452
 6.49    688.5469  20.7870     803.8595   1185.9166 -21.70     1.719     1.036   0.1154        305     85.42406
 5.90    684.6528  20.2427     1327.207    494.2355  33.95     1.699     1.579   0.0780        306     95.38501
 4.30   1577.2255  20.4320     1114.843    509.3104  76.48     1.886     1.748   0.0748        307     76.81094
 7.46    678.6743  22.7412     132.9031    943.0048  28.15     0.912     0.211   0.2576        308     31.52255
 5.95    674.3161  20.1849      1399.75   1442.8916 -53.65     1.764     1.634   0.0770        309     99.21468
 3.50    668.5950  17.7795      12828.8   1090.3999 -58.85     2.110     1.758   0.0056        310      66.1692
 3.50    671.7319  20.9403     698.0623    758.1774  10.12     1.401     1.121   0.0677        311     43.52224
 3.98    672.6792  23.5729     61.78027   1570.6760 -44.84     0.568     0.338   0.3393        312     19.30354
 6.41    671.0736  20.6538      908.787    456.1226 -20.71     1.629     1.121   0.1023        313     85.60563
 4.97    668.2959  20.8355     768.7671    350.3431 -58.60     1.548     1.311   0.0986        314     69.82262
 6.05    667.7723  20.5423     1007.083   1307.7014 -25.72     1.778     1.336   0.0993        315     92.07201
 4.80    686.0467  22.7208     135.4186   1360.5156 -88.39     0.789     0.499   0.2234        316     27.86226
 5.72    661.6709  20.7487     832.7421    316.3075   7.18     1.640     1.409   0.0754        317     57.81784
 3.50    654.2615  18.9370      4417.67    312.4706  51.26     1.703     1.595   0.0142        318     57.64189
 3.92    682.3065  21.2322     533.4779   1072.2152  10.46     1.174     1.036   0.0864        319     42.43853
 6.77    658.6656  21.3386      483.681    922.3510 -23.92     1.183     0.933   0.1588        320     70.70648
 3.50    657.1321  22.4014     181.7286    686.3115 -17.86     0.938     0.656   0.1631        321     27.29933
 3.56    652.6425  19.1268     3709.245     16.4175 -19.14     1.643     1.549   0.0164        322     56.00245
 6.22    648.4801  21.5066       414.33     83.8654  69.42     1.058     0.824   0.1518        323     57.91062
 4.29    643.3030  20.0842     1535.685    165.2615  23.80     1.448     1.367   0.0424        324     60.01714
 4.06    636.0479  18.1456     9157.301    871.1270 -57.28     2.848     2.377   0.0123        325     103.9527
 5.96    641.0565  20.1376     1462.072    220.5041  32.30     1.877     1.739   0.0793        326     106.7528
 4.36    636.1115  21.3263     489.1875    713.3629  76.13     1.181     1.097   0.1100        327     49.52903
 6.57    633.0480  22.2802     203.2068    398.3068 -88.64     0.725     0.673   0.2438        328     45.61248
 3.85    735.7529  20.3042     1254.098    372.6208 -53.84     1.467     1.395   0.0465        329     53.73878
 3.50    628.0223  20.8814     736.9526   1540.7615 -39.07     1.307     1.128   0.0625        330     42.43853
 3.89    626.0219  21.3879     462.1985    984.0187  43.26     1.352     1.126   0.1088        331     46.28826
 8.55   1586.3198  22.3851     184.4871     49.6663  44.36     0.572     0.336   0.2176        332     36.96346
 7.80    620.4565  22.4081     180.6173    135.9588  31.75     0.803     0.310   0.2416        333     40.18352
 4.11    615.7855  20.3568     1194.805    191.3643 -89.16     1.966     1.820   0.0698        334     76.81094
 3.94    611.6806  19.0997     3802.922    588.6849  12.48     2.447     1.458   0.0210        335     73.50568
 4.21    613.7873  22.7784     128.4221   1535.5619  68.99     0.727     0.452   0.1999        336     23.64191
 7.56    612.9899  22.6932     138.9064    971.5016 -57.83     0.795     0.314   0.3018        337     38.60708
 5.06    607.8281  21.5840     385.8409    299.9239 -10.12     2.002     0.667   0.1607        338     57.10064
 8.00    606.4014  21.9462     276.3979   1380.7959 -18.61     0.753     0.451   0.1819        339     46.28826
 3.50    602.5517  19.7849     2023.212   1580.4075 -11.24     1.526     1.340   0.0264        340     49.21456
 8.21   1594.5544  22.4815     168.8152    953.4969  16.63     0.500     0.497   0.2585        341     40.18352
 7.77    597.6989  21.9178     283.7053     31.4397  82.19     0.977     0.483   0.2012        342      52.5704
 6.96    597.3018  21.4994       417.09    442.1967   6.84     1.194     0.614   0.1536        343     58.97329
 6.49    589.9781  22.3952     182.7747    260.5208  32.50     0.983     0.607   0.2998        344      50.4607
 7.93   1581.2156  21.0950     605.3485    263.3687   9.48     0.930     0.780   0.1195        345     66.63683
 4.31   1574.4686  20.5135     1034.179     28.0613  10.92     1.600     1.328   0.0652        346      62.0522
 3.50   1571.2089  20.9500     691.8541    429.6039  -1.45     1.361     1.146   0.0678        347     43.16402
 4.07   1545.4407  19.6318     2329.648    665.0071  51.81     1.760     1.585   0.0314        348     67.33219
 8.18   1590.3119  20.3271     1227.942    264.9013  52.87     1.742     0.950   0.0899        349     101.6877
 3.86   1531.7686  19.3647     2979.444    868.0372 -65.16     1.927     1.713   0.0208        350     57.19653
 7.00   1560.0084  22.2503     208.8754    253.0228 -89.67     0.637     0.610   0.2263        351     43.52224
 4.91   1576.2517  22.1126     237.1229     70.2120 -63.74     1.159     0.657   0.1927        352     42.07109
 4.39   1524.4141  20.8558     754.5454    803.2822 -86.80     1.411     1.238   0.0822        353     57.10064
 5.13   1455.8646  20.6820     885.4939    129.3153  67.02     2.099     1.448   0.1085        354     88.45993
 3.50   1566.6180  18.2591     8248.172     19.5467 -47.25     2.257     1.870   0.0093        355     70.70648
 6.90   1551.2915  21.2127     543.1469    216.9980 -24.69     1.282     0.851   0.1436        356     71.79602
 3.50   1559.4353  18.0271     10213.14   1362.0237  63.78     1.908     1.873   0.0069        357     65.22388
 4.31   1553.7059  20.7813     808.1282   1074.0826  52.81     1.434     1.188   0.0749        358     55.72452
 6.59   1562.3291  21.4944     419.0399    285.7401  -1.76     1.447     0.688   0.1690        359     65.22388
 3.50   1510.2600  15.5082     103922.4   1281.9120 -47.62     2.346     2.315   0.0008        360     80.36704
 4.48   1546.0299  21.7210     340.0986   1237.0082  -0.53     1.222     0.970   0.1541        361     48.25885
 6.26   1554.4752  21.4250     446.6981    637.1225  -4.50     1.289     0.929   0.1654        362     68.02044
 4.46   1526.8496  21.7446     332.7957    958.9269 -73.15     1.089     0.843   0.1349        363     41.32641
 5.69   1515.7474  21.2249     537.0657   1038.1201 -12.16     1.481     1.190   0.1512        364     74.76228
 6.25   1511.4946  22.1538     228.2852      8.4691 -89.95     1.014     0.499   0.2121        365     44.57961
 6.55   1548.0656  20.9265     706.9381    437.2470  77.07     1.824     1.148   0.1432        366     93.24495
 5.93   1555.9697  20.7342      843.958    309.0487  31.62     1.672     1.255   0.1095        367     85.05978
 3.50    839.5729  14.0839     385879.6    275.3863 -32.69     2.446     2.276   0.0002        368     81.51794
 5.87   1510.1105  21.3916     460.6473    983.2292 -68.91     1.098     0.911   0.1378        369     58.44437
 7.76   1533.7628  22.2166     215.4615    686.9981  -0.08     0.695     0.425   0.2102        370     41.70041
 3.50   1534.6948  17.8743     11757.03    875.6373 -44.06     2.005     1.951   0.0065        371     70.64037
 4.24   1512.8563  20.3475     1205.021    594.0773 -50.41     1.814     1.450   0.0525        372     58.24685
 4.85   1534.8787  20.9265     706.9473    113.2209  19.20     1.348     1.120   0.0906        373     58.97329
 3.60   1522.7526  20.0540     1579.122   1514.9204  -8.52     1.603     1.427   0.0370        374     53.73878
 5.48   1520.4866  20.0600     1570.318    587.4318 -45.64     2.188     1.674   0.0484        375     69.99994
 5.10   1509.5151  21.8408     304.5701    525.4976 -21.54     0.945     0.893   0.1662        376     46.62247
 3.50    849.8386  16.1712     56430.55    214.7959 -89.16     2.086     2.009   0.0014        377      71.1443
 3.50    873.5165  18.7576     5211.394    448.0450  54.34     1.699     1.602   0.0119        378     57.10064
 5.10   1460.2817  20.6563     906.7586    123.9003 -73.87     1.447     1.419   0.0632        379     52.73425
 3.89   1504.7812  21.0844     611.2537   1361.0045  -3.68     1.441     1.306   0.0939        380     52.86492
 4.77    862.8785  21.9511     275.1375    655.4520  10.53     1.004     0.867   0.1746        381     44.22997
 4.40    875.8676  20.3392     1214.315   1085.1508  -7.33     1.491     1.353   0.0553        382     61.80148
 8.29   1473.4630  20.7907     801.1692    568.0322 -59.21     1.056     1.047   0.1163        383      85.7868
 3.89    864.6418  21.3934     459.8567    523.1866 -14.76     1.130     1.039   0.0994        384     42.07109
 4.51   1473.0681  19.1023     3793.896   1563.4991  15.07     2.439     2.174   0.0293        385     102.4483
 9.04   1483.5951  21.7667     326.0831    831.2081 -18.79     0.762     0.449   0.1711        386     51.37547
 4.02   1462.1167  20.8566     754.0121    597.6520  -7.33     1.521     1.215   0.0778        387     54.02692
 3.51   1482.0107  21.9064     286.7137   1409.4650 -87.70     1.119     0.930   0.1301        388      34.3509
 7.93   1480.3177  21.5956     381.7227     23.5609 -30.65     0.938     0.537   0.1585        389     55.72452
 6.35   1433.6267  21.3006     500.9158    891.0014 -21.66     1.277     0.953   0.1489        390      68.7018
 7.55   1471.6377  21.4243     446.9915   1550.5687  -7.35     1.047     0.641   0.1495        391     61.54974
 5.04   1410.3209  21.7059     344.8613   1507.6195 -53.65     0.967     0.869   0.1447        392     45.95161
 6.89   1396.3572  21.3604     474.0645    558.1595 -53.28     1.109     0.913   0.1558        393     68.02044
 3.50   1464.3440  20.9432     696.1653    882.2447   2.22     1.485     1.255   0.0732        394     46.95431
 4.77   1454.9135  19.8869     1841.754    717.7418  89.13     1.675     1.547   0.0448        395     75.99811
 3.50   1464.5929  22.4806     168.9491    222.6826  82.83     1.026     0.645   0.1755        396     27.29933
 6.65   1467.0140  20.8502     758.4377     55.5362 -53.29     1.517     1.263   0.1301        397     90.88393
 7.00   1472.4838  22.7152     136.1156   1213.5007 -43.03     0.502     0.498   0.2515        398     31.52255
 3.50   1461.2921  16.3002     50108.49    251.0937   1.15     2.202     2.129   0.0016        399     75.17648
 3.50   1465.8066  15.3035     125488.2    533.8480  73.53     2.604     2.391   0.0007        400     86.32805
 3.87   1451.3909  21.8663     297.4929   1206.5895 -40.76     1.049     0.842   0.1318        401     36.11361
 4.24    887.7533  20.7851     805.2887    689.4931 -73.17     1.761     1.318   0.0867        402     64.26465
 3.50    879.7380  14.8977     182358.2    165.7873 -75.27     2.291     2.231   0.0005        403     78.21309
 5.83   1454.0531  22.5796     154.2217   1034.4991  89.46     0.795     0.500   0.2603        404     36.96346
 3.50    862.1480  13.9032     455742.9   1395.6820 -50.46     4.386     4.092   0.0003        405        146.8
 4.23    867.5311  21.7787     322.5027   1057.9016  57.14     1.167     0.815   0.1353        406     40.18352
 4.68   1417.8381  19.4878      2659.87    691.1601  80.33     2.607     2.052   0.0436        407     106.7528
 5.12    895.6939  23.2077     86.47876   1171.3042  45.11     0.552     0.345   0.2799        408     22.28981
 4.31    900.5183  22.9075     114.0206    299.5195 -45.08     0.508     0.492   0.2056        409     21.58201
 4.13   1438.8507  21.2231     537.9839    959.9644  50.16     1.434     1.195   0.1091        410     54.02692
 7.64   1419.5228  21.1777     560.9631   1083.0508  31.94     1.422     0.938   0.1671        411     86.32805
 3.55   1419.7631  18.9105     4527.087   1049.8881 -25.01     1.909     1.715   0.0152        412     63.53572
 7.57   1390.4725  22.3295     194.1801    805.4818 -40.25     0.501     0.498   0.2067        413     36.96346
 5.46   1425.6345  21.7692     325.3389    837.3907 -47.92     1.018     0.876   0.1695        414     50.76745
 4.10   1413.1150  19.9119     1799.802    966.2263 -15.41     1.850     1.510   0.0347        415     57.46225
 3.50   1415.7566  16.2950     50349.55    953.6645 -38.58     2.233     2.178   0.0017        416     76.60854
 6.93   1388.0636  20.8776     739.5234    402.1930 -88.50     1.402     1.095   0.1246        417     84.87705
 3.50   1384.8019  15.6660     89869.59    907.4203 -43.53     2.302     2.269   0.0010        418     79.19942
 5.71   1404.0055  20.8305     772.3539    754.0024  48.42     1.513     1.204   0.1057        419     75.17648
 7.17    905.8369  21.2641     518.0406   1518.7594  60.60     1.419     0.767   0.1567        420     74.76228
 3.50   1371.6240  21.3262     489.2416   1249.4401   5.81     1.274     1.008   0.0839        421      37.7942
 6.53    920.5975  21.4397     440.6956    854.4276  57.35     1.085     0.947   0.1601        422      64.9854
 4.59   1366.4231  20.2511     1316.915    332.8526  58.06     1.508     1.443   0.0550        423     66.63683
 4.10    916.5317  20.5727     979.3416   1146.2092 -33.66     1.482     1.187   0.0593        424     53.44908
 3.50   1398.2227  17.8833        11660    899.3804  55.11     2.059     2.021   0.0069        425     73.92408
 3.50   1307.5990  18.5073     6562.573    133.4513  29.25     1.825     1.703   0.0101        426     60.78827
 4.29    915.4589  19.1421     3657.268    936.3211  82.71     2.810     2.016   0.0300        427     100.9214
 3.50   1348.5779  22.7987     126.0424    206.7708  18.76     0.723     0.460   0.1796        428      20.8502
 7.26   1376.2065  21.7894     319.3312    522.3862 -33.82     0.717     0.647   0.1674        429     49.21456
 4.62    921.2342  21.9430     277.2006    225.2704  21.61     0.965     0.827   0.1604        430     40.94899
 5.28   1376.1886  20.4430     1103.548    568.6592  33.54     2.026     1.514   0.0899        431       91.395
 6.10   1381.5914  21.7622     327.4341    940.4048 -46.23     1.020     0.859   0.1894        432     57.10064
 6.56   1369.0570  22.4844     168.3662   1364.4938 -89.04     0.792     0.500   0.2641        433     40.94899
 4.10    922.6752  19.7382     2112.136    506.2149  46.75     1.555     1.449   0.0309        434     60.01714
 3.50   1366.7965  16.9645     27176.43   1439.1449 -11.98     2.141     2.043   0.0029        435     72.65588
 5.88    938.3269  20.9584     686.4974    622.8256 -57.53     1.405     1.162   0.1186        436     74.96967
 7.13   1371.5240  22.2670     205.6897   1047.5117  18.94     0.993     0.403   0.2372        437     44.92654
 5.82    928.0559  21.2234     537.8097    856.1138 -80.37     1.242     1.086   0.1350        438     66.86942
 4.16   1364.6201  20.9645     682.6793   1493.9623 -78.33     1.247     1.131   0.0778        439     48.89806
 3.50    919.0305  15.7692     81719.59    620.1516 -59.56     2.179     2.107   0.0010        440     74.34578
 3.88   1361.1562  20.6361     923.7347    521.5701 -66.89     1.373     1.303   0.0604        441     51.37547
 5.20   1364.8397  20.8571     753.6199   1175.5447   6.53     1.536     1.137   0.0974        442     67.56239
 5.62    929.1722  21.9014     288.0234    112.3968  11.58     1.347     0.695   0.2004        443      53.1578
 5.51    926.3683  22.0035     262.1727    693.5194 -20.12     0.930     0.828   0.1972        444     47.61105
 3.50   1350.0790  20.0470     1589.313   1493.9451  55.23     1.524     1.486   0.0359        445      52.5704
 4.30    934.1721  22.0628     248.2391   1019.4662  14.71     1.063     0.717   0.1599        446     36.54101
 6.19    932.8015  22.5419     159.6719    530.5983  71.19     0.752     0.450   0.2427        447      35.6811
 3.50   1311.8887  20.6179     939.3392   1231.8870 -35.25     1.778     1.456   0.0638        448     55.16446
 3.50   1244.0924  15.5765      97590.3    570.3313 -22.79     2.337     2.254   0.0009        449     79.00314
 4.13    931.8657  18.4428     6964.507    944.4788 -76.67     4.628     2.472   0.0216        450     138.3046
 4.54   1306.2303  20.3816     1167.785    724.1013 -72.57     2.117     1.572   0.0765        451     82.27626
 6.86   1331.9374  22.5870     153.1809   1453.0000  90.00     0.842     0.289   0.2200        452      31.0261
 5.99   1301.7611  20.4826     1064.082    942.3810  28.47     1.510     1.278   0.0844        453     82.65282
 4.45    934.9901  22.6327     146.8599    803.1639  33.05     0.809     0.504   0.2101        454     28.41404
 3.50   1248.2002  17.6656     14247.55     37.7628  78.36     1.959     1.901   0.0051        455     66.40343
 4.40   1325.2061  21.1118     596.0486   1202.4988 -15.09     1.226     1.129   0.0925        456     50.76745
 6.10   1326.3965  22.6116     149.7526    702.1823  18.69     0.766     0.447   0.2588        457      35.6811
 7.97   1329.9893  22.5925     152.4005    775.4835 -57.84     0.795     0.313   0.2863        458     40.18352
 5.15   1275.7538  21.9006     288.2394    942.2804  43.18     1.311     0.668   0.1794        459     47.61105
 6.21   1310.4795  22.5649     156.3314   1420.0291  -1.59     0.807     0.499   0.2654        460      38.2028
 3.50   1311.4575  15.0725     155242.4    923.7183 -45.83     2.407     2.300   0.0006        461     81.13612
 6.65   1303.5713  21.4077     453.8624    953.4283  26.52     1.155     0.851   0.1561        462     65.22388
 6.41   1258.7173  21.4875     421.7046    468.3109  39.53     1.124     0.878   0.1624        463     63.04509
 6.23   1300.9634  22.0308      255.675   1554.5389 -29.37     1.254     0.624   0.2355        464     55.44519
 5.45    972.1663  21.6798     353.2328   1261.3557 -36.21     1.343     0.829   0.1730        465       56.279
 5.05   1253.9293  22.7515     131.6447    805.5657 -58.58     0.807     0.307   0.1950        466     23.64191
 3.66   1277.4868  18.7306     5342.472    260.6229   5.60     1.835     1.750   0.0132        467     64.74604
 4.50   1270.3066  21.0510     630.3966    755.5483  -5.90     1.289     1.151   0.0931        468     54.02692
 8.69   1255.3307  22.6223     148.2751   1207.6758  45.29     0.572     0.336   0.2798        469      38.2028
 6.41    974.6508  21.4987     417.3701   1167.7118  71.62     1.331     0.927   0.1823        470     70.04463
 4.16   1278.8495  19.9115     1800.502   1141.6589 -37.54     1.558     1.437   0.0365        471     60.53232
 3.77   1275.0731  19.4085     2861.471    569.6889  32.25     1.751     1.563   0.0233        472     61.29697
 6.66   1252.0199  20.8124     785.3038   1423.5256 -27.29     1.501     1.105   0.1158        473     83.77232
 7.47   1268.5126  21.4528     435.4086   1312.4094  26.43     1.161     0.885   0.1860        474     74.55432
 3.50   1251.1924  18.6586     5708.846    492.3547  12.21     1.768     1.718   0.0115        475     60.53232
 6.54    967.3333  23.0174     103.0496    476.6846  45.86     0.569     0.337   0.3051        476     28.95531
 4.17   1267.2521  20.3494     1202.948   1407.9072 -16.65     1.530     1.278   0.0528        477     58.44437
 4.86   1260.9121  21.1041     600.3051   1422.5894 -75.42     1.349     1.057   0.1038        478      57.3719
 3.59   1234.7123  20.4688     1077.616    711.5583  59.52     1.625     1.345   0.0533        479     52.86492
 3.50   1238.3600  18.4997     6608.526   1246.0221 -14.32     1.855     1.784   0.0103        480     62.79834
 3.50    936.5521  18.6012     6018.729    842.1199  74.45     1.720     1.673   0.0105        481      58.1781
 3.74   1241.5107  19.2006     3465.363    865.0555  66.92     1.791     1.630   0.0198        482     63.29089
 3.50   1228.7976  16.8445     30352.56   1333.7159 -77.34     2.063     2.021   0.0025        483     70.92573
 4.52   1178.4353  19.4397     2780.494   1464.3932  -0.53     3.511     1.725   0.0431        484     110.3289
 6.56   1232.8136  21.5134     411.7697   1542.4172 -40.92     1.187     1.079   0.1927        485     73.08202
 3.50   1236.9219  17.8521     11999.36    384.1447 -87.38     1.968     1.917   0.0060        486     66.63683
 3.50    943.6912  23.4676     68.07056    869.3198  44.41     0.561     0.342   0.2178        487     13.64966
 3.50   1213.9702  14.6613     226706.9   1194.7819 -41.78     2.461     2.334   0.0004        488     83.02766
 5.99   1234.2408  21.3811     465.1133   1465.8170  18.76     1.092     0.905   0.1377        489     58.97329
 3.50   1228.7915  18.5902     6080.276    319.0116  26.13     1.803     1.719   0.0110        490     61.54974
 8.74    958.4910  21.8892     291.2725   1350.4940 -44.86     0.504     0.495   0.1609        491     43.16402
 6.31   1128.9634  22.3595     188.8909   1354.0076 -43.37     0.916     0.531   0.2502        492     43.52224
 8.03   1219.7965  21.8876     291.7264    904.7841  44.69     0.931     0.457   0.1946        493     52.27423
 3.50   1205.4482  20.8966     726.7065    117.0941  22.46     1.346     1.253   0.0661        494     44.22997
 5.19   1208.4337  20.7640     821.0698    490.4267  87.59     2.133     1.345   0.1151        495     87.04448
 4.62   1224.3573  20.5017     1045.446    425.1234   5.03     1.454     1.301   0.0657        496     63.29089
 5.35    974.3796  22.3454     191.3517    282.6032   0.53     0.960     0.681   0.2429        497     42.80281
 5.18   1212.8921  21.5868     384.8407   1112.3815  56.57     1.345     0.839   0.1516        498     53.73878
 7.10   1188.6272  19.8540     1898.398    585.7938  52.61     2.463     1.577   0.0789        499     137.9674
 6.07   1199.9415  22.3073     198.1854    834.9534  46.02     0.909     0.534   0.2285        500     41.70041
 3.50   1193.6270  17.0312     25558.02   1031.1660 -11.24     2.067     2.036   0.0030        501     70.92573
 7.84   1198.4917  21.7946     317.7968    463.5009 -18.77     0.959     0.416   0.1703        502     49.84152
 5.85   1022.6279  22.9447     110.1853    396.6944 -47.69     0.581     0.330   0.2517        503     25.53618
 4.22   1203.2529  20.6553     907.5525   1349.7855 -12.43     1.353     1.299   0.0660        504     55.16446
 3.50    942.4642  16.3564     47580.31    689.6323  32.22     2.533     2.047   0.0018        505     78.80637
 7.41    971.1232  21.6035     378.9805    130.4357 -61.39     1.065     0.702   0.1842        506     64.26465
 6.26   1188.7766  20.2220     1352.704   1456.8196  24.64     2.192     1.385   0.0867        507     108.0538
 3.50   1178.9105  18.6148     5944.009      6.1461  48.76     1.720     1.691   0.0107        508     58.70942
 3.81   1040.5870  19.6435     2304.629     23.0064 -43.65     1.603     1.515   0.0275        509     58.44437
 3.50   1160.0333  21.7262     338.4845   1196.0551 -38.92     1.151     0.983   0.1145        510      35.6811
 4.76   1185.4515  20.8891     731.7427    284.1159  34.06     1.307     1.197   0.0879        511     59.23597
 3.50   1153.9246  18.2468     8342.362    195.1328 -89.96     1.798     1.764   0.0080        512     61.29697
 6.85   1175.1505  21.1031     600.8527   1044.8020   1.74     1.543     0.850   0.1388        513     76.81094
 3.83   1040.1049  19.2828     3212.886   1084.2731  18.06     1.590     1.502   0.0196        514     57.91062
 6.03   1172.9836  22.9081     113.9578    848.0000  90.00     0.830     0.289   0.2810        515     29.48664
 5.70   1146.8975  21.5189      409.676    390.9275  63.42     1.197     0.942   0.1577        516      59.4975
 3.50   1042.6750  18.4116     7167.491    424.1342 -27.61     1.907     1.706   0.0094        517      62.0522
 3.92   1027.2858  18.1661     8985.694    607.5982  -0.54     2.937     2.334   0.0122        518     101.0751
 3.51   1139.1234  21.4119     452.1079    312.2096  46.20     1.224     1.071   0.0946        519     39.40318
 3.50   1123.6833  21.2438     527.8361    767.2013  55.10     1.273     1.129   0.0843        520     40.94899
 6.78   1167.6044  21.3146     494.4714    432.6160 -31.44     1.285     0.777   0.1458        521     66.40343
 8.08   1150.4957  22.4662     171.2039    484.0085 -32.41     0.788     0.317   0.2549        522     40.18352
 8.22   1141.5033  22.2250     213.7874    430.0066 -32.03     0.799     0.313   0.2041        523     40.18352
 3.50   1130.1757  16.5387     40227.56    620.7014 -31.00     2.285     2.082   0.0021        524     76.20213
 3.50   1125.2101  18.2513     8307.832     68.9930  52.07     5.415     2.742   0.0174        525     133.1571
 4.39   1132.3076  22.6101     149.9606    292.9208 -10.90     0.738     0.664   0.2247        526      31.0261
 5.88   1078.0590  21.1137     595.0306    856.2999 -83.86     1.492     1.167   0.1406        527     77.01282
 4.42   1074.3591  19.6977     2192.347    142.3772  28.88     2.176     1.744   0.0422        528     85.24212
 5.76   1049.9124  20.7025       868.96    312.5385  88.08     1.588     1.260   0.1014        529     81.13612
 6.45   1113.2792  22.3896     183.7137    602.0090  -4.38     0.729     0.673   0.2635        530     44.57961
 3.50   1015.5732  21.8205     310.3234    821.2109 -51.95     0.976     0.940   0.1154        531     32.96707
 3.50   1110.8773  18.8641     4724.725   1267.7404  56.34     1.736     1.704   0.0136        532     59.23597
 5.50   1049.1709  21.2463     526.5997    226.7189 -59.01     1.401     1.077   0.1384        533      67.1012
 4.66   1100.0394  20.5476     1002.169   1452.0444 -78.85     1.388     1.168   0.0642        534     59.23597
 3.50   1094.7350  17.8203     12355.79     15.9221 -65.02     1.808     1.768   0.0055        535      62.0522
 6.73   1064.2007  21.1455     577.8146    531.8288   7.78     1.540     0.811   0.1405        536     74.76228
 4.64   1059.7367  21.4177     449.6921    958.4913  19.81     1.245     1.140   0.1325        537     54.88228
 3.54   1081.6238  22.2781      203.592    306.5401  16.03     0.965     0.794   0.1655        538      31.0261
 6.22   1079.7250  22.3962     182.6116   1051.5647 -80.02     1.009     0.471   0.2546        539     42.80281
 4.90   1084.5737  21.3349     485.3539    386.4814   0.40     1.334     1.222   0.1366        540     61.04315
 6.78   1080.8109  22.5153     163.6346    704.9886  37.14     0.943     0.468   0.2935        541     44.22997
 7.37   1053.6665  22.9837     106.2976   1403.6602 -44.74     0.580     0.332   0.3118        542     30.52157
 6.74   1081.5771  21.0533     629.0707   1122.1453 -25.85     1.191     1.044   0.1276        543     73.92693
 3.50   1090.1770  18.0263     10220.24    792.3015  63.20     1.883     1.847   0.0068        544     64.26465
 7.02   1091.0970  21.5647     392.7573   1428.7511  -9.67     1.161     0.723   0.1770        545      64.0226
 5.39   1093.0427  22.2662     205.8326    676.9826 -59.68     0.804     0.781   0.2258        546     42.80281
 7.22   1078.6747  22.8118     124.5304    911.2928  46.86     0.556     0.343   0.2617        547     30.00857
 3.50   1069.8640  19.8181     1962.247     62.4995  -6.69     1.637     1.484   0.0302        548     54.59865
 4.04   1030.6969  20.8449     762.1523    848.0089 -75.49     1.870     1.176   0.0833        549     58.44437
 6.53   1069.3798  21.3730     468.5961   1185.4484  69.10     1.737     0.719   0.1674        550     72.22723
 3.50   1057.6855  17.9747     10717.99    239.4490  84.41     1.867     1.816   0.0064        551     63.53572
 3.63   1063.6155  20.1662     1424.081    862.4768 -21.97     1.831     1.466   0.0438        552      57.3719
 4.57   1062.9104  22.1498       229.13   1335.6189  14.61     1.008     0.727   0.1849        553     39.00716
 3.50   1011.1583  20.2783     1284.357    374.5453 -25.62     1.452     1.381   0.0413        554     48.89806
 4.31   1047.3929  18.2412     8385.254   1382.6086 -68.67     3.761     2.809   0.0180        555     138.7529
 4.70   1053.7889  21.3859     463.0593   1320.4387  85.32     1.709     1.055   0.1467        556     62.55061
 3.84   1006.3179  18.9730     4273.818   1353.1570   4.46     1.708     1.638   0.0161        557     63.29089
 8.49   1063.1918  21.8130     312.4733    934.9999 -59.55     0.821     0.507   0.1898        558     54.59865
 3.56   1030.4066  19.2837     3210.088    766.0451 -56.04     1.688     1.629   0.0196        559     57.91062
 3.50   1036.8479  19.7479      2093.39    207.8894  43.17     1.552     1.414   0.0267        560     51.37547
 3.69   1020.0496  19.8669     1875.948    502.3459 -20.93     1.648     1.467   0.0332        561      57.3719
 6.88   1035.4869  21.3521     477.6978    622.2975 -66.71     0.932     0.821   0.1347        562     59.23597
 6.81   1029.6265  22.3602     188.7661   1367.2620 -16.37     0.721     0.458   0.2198        563      38.2028
 3.50   1021.1165  18.4921     6655.116    106.2325  40.85     1.782     1.715   0.0099        564     60.78827
 4.04   1029.1187  19.5009      2628.17    310.2960  12.18     1.667     1.531   0.0263        565     63.53572
 7.48   1009.3348  22.6116     149.7443    219.6961  46.57     0.565     0.339   0.2286        566     31.52255
 5.23   1008.8175  22.3526     190.0886    186.4417  40.28     1.058     0.713   0.2567        567     44.92654
 3.50   1001.1121  16.7728     32425.34    997.8738  72.15     2.031     2.012   0.0023        568      69.5999
 7.40   1002.5422  21.8094     313.4948    291.9825 -63.87     1.043     0.663   0.2088        569     60.27528
 4.89    999.2411  21.1728     563.4926   1446.3911  18.60     1.237     1.138   0.1111        570     57.64189
 3.50    995.0240  17.9215     11256.79    144.7581  70.78     1.800     1.739   0.0059        571     61.54974
 6.78    992.0427  21.7544     329.7915   1077.4990  29.63     0.991     0.667   0.1798        572     54.59865
 3.50    986.8708  20.0913      1525.75    729.9510 -35.59     1.513     1.406   0.0361        573     50.76745
