#   1 NUMBER                 Running object number                                     
#   2 FLUX_BEST              Best of FLUX_AUTO and FLUX_ISOCOR                          [count]
#   3 FLUXERR_BEST           RMS error for BEST flux                                    [count]
#   4 MAG_BEST               Best of MAG_AUTO and MAG_ISOCOR                            [mag]
#   5 MAGERR_BEST            RMS error for MAG_BEST                                     [mag]
#   6 KRON_RADIUS            Kron apertures in units of A or B                         
#   7 X_IMAGE                Object position along x                                    [pixel]
#   8 Y_IMAGE                Object position along y                                    [pixel]
#   9 A_IMAGE                Profile RMS along major axis                               [pixel]
#  10 B_IMAGE                Profile RMS along minor axis                               [pixel]
#  11 THETA_IMAGE            Position angle (CCW/x)                                     [deg]
         1     274626.8     371.4893  14.4579   0.0015  3.50    402.3775    233.9814    10.634     8.778 -38.77
         2      3136694     265.1164  11.8136   0.0001  3.50   1105.8607    181.0399     7.094     6.715 -42.10
         3     231681.8     80.97546  14.6426   0.0004  3.50    535.8597     79.0787     2.118     2.057 -46.23
         4     232167.3     272.4633  14.6403   0.0013  3.50     61.9890     52.6576     7.509     6.689   7.32
         5     242225.9     83.76854  14.5942   0.0004  3.50   1076.9382     58.9499     2.264     2.130  83.78
         6     30306.48     124.1562  16.8509   0.0044  3.50    983.4832     15.7246     4.835     2.175 -87.67
         7     4277.561     61.61309  18.9768   0.0156  3.50    365.4074     23.8132     1.622     1.553  19.99
         8     2039.688     52.40152  19.7809   0.0279  3.50    382.9857     16.2983     1.477     1.343 -70.55
         9     672.8105     94.52209  20.9850   0.1526  6.67    966.0981     20.1056     2.237     0.744 -58.57
        10     52613.55     70.60364  16.2520   0.0015  3.50   1444.2244     13.8115     1.862     1.815 -54.26
        11     19490.55     63.75413  17.3302   0.0036  3.50     89.4705     17.0203     1.683     1.635 -20.39
        12     536.3464     55.73114  21.2312   0.1128  4.81   1213.4308     17.2415     1.085     1.033  79.84
        13     1154.485     69.50894  20.3988   0.0654  3.76    839.6125     13.4007     2.133     1.359 -68.56
        14     917.9638     87.35383  20.6477   0.1033  6.50   1561.3882     14.8121     1.337     1.107 -18.66
        15     1002.049     49.15024  20.5526   0.0533  3.50   1182.2854      9.1747     1.315     1.231 -85.83
        16     945.8037     75.84047  20.6153   0.0871  4.88   1468.1166      5.8627     1.554     1.389 -25.95
        17     2064.365     67.26612  19.7678   0.0354  3.74    143.4042      3.7545     1.942     1.678  38.72
        18     997.2278     73.26886  20.5578   0.0798  4.97    183.9256      3.8112     1.566     1.484 -19.06
        19     160.7353     42.90185  22.5395   0.2899  9.07   1576.6566      4.2992     0.566     0.338  42.80
        20      581.538       40.131  21.1433   0.0749  3.50    302.4330      2.2875     1.287     1.131 -20.51
        21     485.7553     45.08098  21.3387   0.1008  4.12    842.9996      2.5093     1.425     0.862   8.77
        22     308.7068     50.30688  21.8309   0.1770  6.32    161.3416      3.1164     0.897     0.694 -21.52
        23     103.9382     22.32683  23.0128   0.2333  5.77    785.6578      1.2892     0.561     0.340  42.18
        24     177.3317     27.69302  22.4328   0.1696  4.27    761.6531      1.4143     0.961     0.475   9.06
        25     188.0902      38.1722  22.3689   0.2204  6.39    480.8256      1.2961     1.026     0.407  12.67
        26     267.4902      55.0388  21.9865   0.2235  6.70    894.3039     28.1417     0.897     0.608 -56.46
        27     1485.659     55.21856  20.1250   0.0404  3.50    381.4121     22.9870     1.552     1.385  26.97
        28     502.3976     63.75413  21.3022   0.1378  5.51    192.9379     15.4396     1.309     0.843 -25.96
        29     2658.389     76.84502  19.4932   0.0314  3.95   1108.5092     33.0238     2.186     1.436  64.83
        30     477.8162     46.33929  21.3566   0.1053  3.50    212.2944     20.8810     1.210     1.171 -74.93
        31     179.5721     37.15409  22.4192   0.2247  5.69   1470.5825     16.2838     0.725     0.462 -72.04
        32     744.3445     67.26612  20.8753   0.0981  4.87   1451.7214     24.3459     1.372     1.150 -35.86
        33     296.4377     56.75381  21.8749   0.2079  6.53    181.6721     17.1754     0.918     0.675  18.35
        34     645.5754     62.23233  21.0299   0.1047  5.13    696.7333     22.8933     1.116     1.083  17.60
        35     212.1328     43.34644  22.2383   0.2219  6.35    628.7789     18.1974     0.742     0.553 -46.74
        36     208.8905     47.56433  22.2550   0.2473  4.88    948.8282     24.1206     1.485     0.545  75.63
        37     1787.291     79.54216  19.9243   0.0483  4.58    325.0564     32.3680     1.665     1.482 -22.27
        38     142.9769     43.34644  22.6666   0.3292  6.82    648.1984     20.2118     1.002     0.347 -43.75
        39     535.7695     53.46561  21.2323   0.1084  6.57    701.4138     25.9967     1.647     0.896  -2.71
        40      294.528     51.80891  21.8820   0.1910  5.64    882.8975     21.0868     0.934     0.746  10.48
        41     213.8444     42.90185  22.2295   0.2179  5.36    406.5530     21.1786     1.072     0.489 -42.10
        42     320.5805     59.07124  21.7899   0.2001  8.74    301.0722     18.5246     0.785     0.499   0.32
        43     350.7816     53.98364  21.6922   0.1671  5.35    530.0192     24.7367     1.014     0.845  56.98
        44     234.5439     30.96174  22.1292   0.1434  3.50    202.1923     23.9405     1.029     0.632  34.70
        45     258.1485     51.06342  22.0251   0.2148  5.50    815.2517     27.6324     0.920     0.760 -81.13
        46      292.959     45.92369  21.8878   0.1702  5.20   1486.0225     29.2800     0.897     0.748 -88.49
        47     198.7155     43.78652  22.3092   0.2393  7.68    571.9785     24.4922     0.802     0.312  31.95
        48     1668.865     69.23256  19.9987   0.0451  3.55    438.6863     43.2296     2.026     1.583 -54.06
        49     1656.889     63.14981  20.0065   0.0414  3.96   1169.1199     37.9935     1.507     1.404  14.53
        50     635.8113     84.67909  21.0465   0.1446  7.94   1066.5337     33.8063     1.192     0.788  65.46
        51     426.3996     46.75121  21.4802   0.1191  4.18     14.6483     33.7003     1.145     0.912  80.06
        52     1307.632     52.90745  20.2636   0.0439  4.02   1519.9520     37.1255     1.249     1.175 -76.64
        53     132.4684     32.17639  22.7495   0.2638  6.76    180.6672     27.6671     0.577     0.334 -45.00
        54     1533.381     63.14981  20.0907   0.0447  4.47    913.7721     41.5011     1.388     1.161 -59.67
        55     631.5043     49.53879  21.0538   0.0852  3.50   1224.5693     38.6517     1.488     1.071 -33.73
        56     208.0519     41.53954  22.2594   0.2168  6.49   1030.2761     33.2959     1.216     0.286 -54.81
        57     224.1826     33.91689  22.1783   0.1643  4.00   1293.6444     31.8803     0.929     0.676 -22.21
        58     199.4633     44.65366  22.3051   0.2431  7.86   1340.5347     29.5043     0.505     0.494  47.95
        59     344323.5     81.44763  14.2124   0.0003  3.50    787.4702    120.9343     2.157     2.096 -47.65
        60     1219.114     75.58725  20.3397   0.0673  4.18    263.5575     49.2597     1.825     1.506 -83.71
        61     173.0726     43.34644  22.4592   0.2720  6.27   1262.9725     35.8139     0.814     0.510 -54.05
        62      121.929     41.53954  22.8395   0.3700  8.60   1588.3168     33.3085     0.559     0.342 -44.54
        63     350.1413     63.75413  21.6942   0.1977  6.82   1126.4724     39.3315     0.924     0.798 -21.87
        64     531.8315     52.90745  21.2403   0.1080  4.10    226.7347     42.8438     1.493     0.922  35.67
        65     539.2341     43.71889  21.2253   0.0880  5.10   1429.2076     46.5393     1.116     1.104 -37.60
        66     370.9373       40.131  21.6315   0.1175  3.50   1000.2679     41.4391     1.253     0.882 -12.66
        67     221.1056     47.15952  22.1933   0.2316  7.43   1513.4132     39.2582     0.727     0.457  71.13
        68     539.0444     67.26612  21.2257   0.1355  5.48    473.0158     45.6939     1.310     0.972 -21.07
        69     302.9096     68.67647  21.8515   0.2462  7.19    315.2479     43.6984     1.103     0.686 -72.42
        70     152.5331     29.04469  22.5964   0.2068  4.57   1035.0298     40.9707     0.625     0.596   1.40
        71     1011.004     45.70482  20.5429   0.0491  3.50   1433.9248     49.4510     1.292     1.149  -1.77
        72     641.9817     73.26886  21.0360   0.1239  5.59    664.5062     46.6659     1.272     1.123  -3.57
        73     328.0341     57.42548  21.7650   0.1901  6.75    730.0420     47.2526     0.978     0.611  64.60
        74     547.9832     75.07824  21.2079   0.1488  6.65    879.9092     49.3908     1.156     0.908 -10.03
        75     223.7224     47.96572  22.1805   0.2328  6.04    386.1674     49.5999     0.886     0.608 -79.92
        76     507.6568     62.23233  21.2909   0.1331  6.16    119.5620     50.4000     0.978     0.859  39.15
        77     260.4402     51.43751  22.0155   0.2145  5.92   1231.9867     47.9893     0.803     0.766  54.67
        78     612.6244     85.13071  21.0868   0.1509  6.72   1095.5955     53.7217     1.440     0.924  25.30
        79     131.3026     33.91689  22.7591   0.2805  5.98    577.4872     46.4635     0.514     0.485 -43.85
        80      169.826      38.1722  22.4798   0.2441  5.32    914.5299     51.0270     0.791     0.497  85.78
        81     8259.851     61.30112  18.2624   0.0081  3.50    126.4639     74.0746     1.608     1.549 -36.00
        82     1203.197     63.45269  20.3539   0.0573  3.50   1146.3190     65.1213     1.723     1.584 -13.22
        83     383.0091     56.41498  21.5968   0.1600  4.89    468.7836     58.4485     1.318     0.828  49.81
        84     270.2512     44.65366  21.9754   0.1794  7.48    188.2154     53.2797     0.824     0.349  73.10
        85     138.0791     33.91689  22.7045   0.2668  7.35   1451.3477     50.6953     0.571     0.336  42.98
        86     220.3905     32.76683  22.1968   0.1615  3.75    319.5156     53.9820     1.039     0.642 -26.94
        87     265.9348     44.65366  21.9928   0.1824  7.45    713.9626     51.2132     0.702     0.409   1.41
        88     335.3655     35.57233  21.7410   0.1152  3.50   1240.3855     57.3668     1.139     0.762 -38.30
        89     735.0412     62.84547  20.8890   0.0929  4.31   1414.0514     66.8233     1.434     1.240 -66.66
        90     188.3596     44.22221  22.3673   0.2550  6.19   1404.2054     57.0118     0.929     0.464  51.94
        91     172.3483     40.60595  22.4638   0.2559  7.23   1035.5228     55.5307     0.511     0.488 -44.48
        92     298.7061     71.14467  21.8667   0.2587  7.08    765.8586     61.8460     0.918     0.900 -22.87
        93     235.5255     39.65038  22.1247   0.1828  5.00   1114.6226     59.7249     0.975     0.535  29.48
        94     539.3187     52.49731  21.2252   0.1057  4.63     17.8143     68.4337     1.305     1.108  50.60
        95     211.8437     48.36379  22.2397   0.2479  6.46    281.8348     62.1769     0.773     0.566 -43.95
        96     242.4889     52.54382  22.0931   0.2353  8.22   1036.7750     59.5976     0.755     0.450  18.69
        97     627.7719     49.53879  21.0603   0.0857  3.72   1320.7249     70.8718     1.267     1.135 -52.07
        98     390.9213     36.63443  21.5746   0.1018  3.50   1514.5621     65.5809     1.030     0.920 -50.34
        99     274.0065     54.68934  21.9604   0.2168  6.47    130.7237     62.9318     0.963     0.618  24.84
       100     158.4772     41.99855  22.5549   0.2878  6.02   1162.5974     60.1866     0.991     0.381   5.17
       101     355.6917     44.32285  21.6771   0.1353  7.29     21.8448     69.1217     1.221     0.849 -76.98
       102     2134.065     60.98756  19.7318   0.0310  3.50    419.7956     81.2973     1.737     1.469 -81.99
       103      12432.8     67.26612  17.8184   0.0059  3.50     54.3841     95.5598     1.798     1.727  64.67
       104     4776.029      95.5309  18.8571   0.0217  3.63    375.3818     89.6493     2.547     2.273 -18.28
       105      1497398     105.8149  12.6164   0.0001  3.50    316.2785    192.5929     3.026     2.483 -62.14
       106     279.2369     47.15952  21.9398   0.1834  4.95    828.6815     68.7988     1.125     0.691  17.04
       107     287.7261     43.78652  21.9073   0.1653  4.27   1347.8939     72.3809     1.342     0.648 -45.06
       108     1371.748     108.8516  20.2116   0.0862  5.79    930.6314     83.1528     2.049     1.445 -39.19
       109     440.8583     66.98049  21.4440   0.1650  6.22   1255.5217     73.5162     1.149     0.821 -45.23
       110     1341.938     87.13407  20.2354   0.0705  5.37    757.2433     87.4433     1.610     1.357  64.31
       111     458.1602     58.87733  21.4022   0.1396  8.14   1070.2133     77.1245     1.632     0.814 -30.30
       112      375.183      53.2686  21.6192   0.1542  4.85    732.3786     74.1664     1.078     0.902 -29.52
       113     734.4404     46.75121  20.8899   0.0691  3.50   1031.9869     78.7737     1.317     1.133 -12.12
       114     760.8807     49.15024  20.8515   0.0702  3.50   1358.2537     87.1814     1.407     1.190 -89.09
       115     907.0101     71.68162  20.6608   0.0858  4.46    862.2872     86.7435     1.861     1.149 -29.57
       116     562.7541     54.68934  21.1790   0.1055  4.29   1559.1210     84.9799     1.429     0.922  44.14
       117     349.5225     66.98049  21.6961   0.2081  6.29    843.3592     84.4391     1.203     0.794  84.91
       118     1133.141     82.38384  20.4191   0.0790  4.95   1043.9253     90.8994     1.938     1.170  54.49
       119     358.8137     43.08567  21.6676   0.1304  6.49    923.3099     85.5822     1.103     0.860 -67.26
       120     152.1765     39.65038  22.5989   0.2830  5.95   1488.6091     81.7517     0.757     0.449  71.81
       121     600.9909     74.04972  21.1076   0.1338  6.03    810.4886     87.8710     1.285     0.963 -70.00
       122     1260.418     55.73114  20.3035   0.0480  4.07    494.1918     90.5993     1.279     1.238 -48.83
       123       180.63     42.90185  22.4128   0.2579  6.07   1412.1635     83.8264     0.749     0.562 -49.69
       124     2967.991     70.33156  19.3736   0.0257  3.50    451.0889     97.1877     2.431     1.374 -15.96
       125     80.70383     21.45092  23.2875   0.2887  4.97    468.3146     83.3173     0.562     0.341 -45.14
       126     1310.254     72.74362  20.2614   0.0603  4.77   1074.8386     94.6380     1.521     1.280  23.11
       127     337.3412     58.74578  21.7346   0.1891  6.76    735.2778     86.8510     0.921     0.686  22.05
       128     635.1302     70.87467  21.0476   0.1212  6.20   1098.1969    106.3319     1.136     0.933 -12.56
       129     249.6008      42.4526  22.0617   0.1847  4.62    870.6570     93.4827     1.107     0.647 -50.33
       130     288.3591     50.30688  21.9049   0.1895  5.58    667.9649     93.5585     1.007     0.667 -61.78
       131     343.3932     39.16385  21.7153   0.1239  3.99    387.6487     94.2225     0.950     0.831 -16.30
       132     243.8666     47.15952  22.0869   0.2100  5.06    559.8550     96.2501     1.011     0.742 -80.28
       133     723.4375     77.83662  20.9063   0.1168  5.45    517.6116    101.7927     1.576     1.079  15.53
       134     1536.433     110.5989  20.0885   0.0782  5.81    268.6600    112.8096     1.888     1.596  72.58
       135     653.0714     76.84502  21.0174   0.1278  5.83   1420.7061    107.0059     1.615     0.894 -42.11
       136     581.7789     42.90185  21.1429   0.0801  3.50    861.2603    107.2812     1.176     1.069  79.32
       137      100.631     32.17639  23.0480   0.3472  6.89    848.6563     97.6695     0.581     0.331 -44.46
       138     558.9894     79.30075  21.1863   0.1541  6.56    179.9335    106.7319     1.334     0.905 -45.43
       139     213.5444     45.08098  22.2311   0.2293  6.65   1531.9949    102.0056     0.992     0.388 -59.55
       140     985.5344     66.11619  20.5706   0.0729  4.41    414.3137    114.1422     1.563     1.184 -64.81
       141      210.865     45.50428  22.2448   0.2344  7.24    812.2355    101.5760     0.731     0.459 -18.82
       142     194532.1     77.34241  14.8323   0.0004  3.50   1466.8153    161.4554     2.020     1.988 -50.78
       143     1438.286     72.47958  20.1602   0.0547  4.21     65.1696    116.2593     1.914     1.263  16.32
       144     444.1015      38.6712  21.4361   0.0946  3.50   1513.2997    110.1495     1.130     0.885  -3.01
       145     181.9229     41.07539  22.4051   0.2452  7.45   1043.4897    105.4558     0.506     0.492 -41.03
       146     861.5787     51.06342  20.7165   0.0644  3.50    989.4056    116.1976     1.343     1.306  70.34
       147      833.592     47.15952  20.7524   0.0614  3.50    152.4680    116.7087     1.257     1.197 -79.16
       148     318.3426     69.78423  21.7975   0.2381  6.29    565.4056    113.6734     1.172     0.858  55.28
       149     366.3586     47.56433  21.6450   0.1410  3.88    911.7692    117.8095     1.212     1.002 -64.29
       150     218.9137     45.08098  22.2041   0.2236  4.36   1411.8466    113.0157     1.135     0.741  -9.45
       151     272.4385     51.43751  21.9666   0.2050  7.50    656.9948    113.9909     0.613     0.610 -89.28
       152     160.6977     34.47754  22.5398   0.2330  5.78   1480.7544    111.7737     0.846     0.348  17.51
       153     1209.811     65.24044  20.3480   0.0586  3.50    492.5876    125.2557     1.941     1.442   2.66
       154     43278.37     71.94859  16.4641   0.0018  3.50    875.6189    169.2820     1.908     1.864 -60.45
       155     272.1725     50.30688  21.9677   0.2007  5.15   1400.4867    118.3578     0.966     0.792 -10.93
       156      177.639     42.90185  22.4309   0.2623  6.18    299.7966    116.0171     0.807     0.503  35.12
       157     179.2923     36.10729  22.4209   0.2187  5.69   1578.7384    114.5822     0.710     0.460  19.13
       158      335.495     64.35278  21.7406   0.2083  6.61    262.1101    123.3501     1.042     0.752  75.20
       159     179.1982     44.65366  22.4214   0.2706  5.49   1570.5808    121.1369     0.881     0.601 -11.83
       160     571.1222     51.43751  21.1630   0.0978  4.14    884.1531    128.1595     1.189     1.083  46.21
       161      331.045     60.67238  21.7551   0.1990  6.45    867.5879    122.8829     1.023     0.735  15.07
       162     193.7762     40.60595  22.3365   0.2276  6.51   1436.2285    120.4215     0.731     0.452  20.28
       163     595.0062     82.15079  21.1185   0.1499  7.11   1371.5291    126.1285     1.165     0.944  32.96
       164      176.016     41.07539  22.4409   0.2534  7.36   1425.4612    123.9629     0.802     0.311  58.20
       165     1089.203     53.62731  20.4620   0.0535  4.36    416.3064    130.1945     1.185     1.060  23.36
       166     376.6994     36.10729  21.6148   0.1041  3.50   1477.0881    127.3015     1.027     0.839  34.42
       167     1551.816     91.00857  20.0777   0.0637  4.64    884.2524    141.1751     2.560     1.250  51.73
       168     424.1382     45.08098  21.4860   0.1154  3.50     97.7356    133.9798     1.549     0.907 -80.27
       169     290.9991     55.38605  21.8951   0.2067  6.14    461.1927    129.4976     0.923     0.738  89.89
       170     599590.9     86.69288  13.6101   0.0002  3.50    995.7995    258.9250     2.361     2.174 -42.66
       171     372.0282     37.15409  21.6283   0.1085  4.86   1599.5870    137.9213     1.363     0.489 -87.48
       172     365.2592     61.92348  21.6483   0.1841  6.48   1274.8502    134.1640     0.978     0.796  37.61
       173     1557.121     67.55054  20.0740   0.0471  4.29    352.2564    145.8185     1.580     1.318 -54.31
       174     240.4714     47.96572  22.1021   0.2166  6.31    757.6946    132.8003     0.743     0.654 -15.66
       175     548.3457      76.3444  21.2071   0.1512  6.47    630.4071    140.2542     1.364     0.865 -23.00
       176     146.5774      53.2686  22.6396   0.3947  7.32    192.1956    134.7909     0.944     0.450 -45.34
       177     251.5496      38.6712  22.0532   0.1670  4.25    252.0739    140.8684     1.103     0.661  10.69
       178     1080.917     56.75381  20.4703   0.0570  4.14   1278.7671    150.6800     1.295     1.219 -58.49
       179     3953.449     63.75413  19.0623   0.0175  3.69   1444.3955    164.2324     1.650     1.509  67.41
       180     722.7516     45.08098  20.9073   0.0677  3.50     80.7820    154.4513     1.286     1.094 -69.11
       181     726.5233     56.41498  20.9017   0.0843  4.73   1578.5552    155.2446     1.102     1.055  58.81
       182      1125.78     81.91707  20.4261   0.0790  5.00    574.8579    164.9477     1.679     1.288  82.37
       183     322.9994     36.63443  21.7818   0.1232  3.50    822.8507    154.5640     0.991     0.902  40.32
       184     325.3103     52.54382  21.7740   0.1754  5.61   1007.1639    155.8438     0.954     0.740 -65.97
       185     107.4383     24.76939  22.9769   0.2504  5.18   1359.3773    150.2928     0.576     0.331 -41.40
       186     1811.158     109.3787  19.9099   0.0656  8.18   1158.0479    194.0573     1.314     1.128 -53.43
       187     2923.646     52.54382  19.3900   0.0195  3.50    102.5694    165.7635     1.454     1.296 -21.47
       188     505.2946     47.15952  21.2959   0.1014  3.50    491.1163    159.1646     1.603     0.898  14.26
       189     125.1817     32.17639  22.8109   0.2791  6.63   1492.6781    154.6472     0.580     0.331 -46.27
       190      540.096     43.78652  21.2236   0.0880  3.50   1196.2520    164.4625     1.225     1.045 -20.65
       191      1192.01     68.11584  20.3641   0.0621  4.28    649.7093    167.7512     1.554     1.353 -12.07
       192     6280.793     105.9959  18.5597   0.0183  4.60    348.2057    207.7933     2.544     1.737  39.26
       193      2145.02     96.33034  19.7262   0.0488  4.73    573.4250    179.1405     2.076     1.670  36.74
       194     1718.559     73.00671  19.9669   0.0461  4.88   1367.4532    168.4634     1.464     1.264  -7.04
       195     1106.778     89.73566  20.4446   0.0881  5.31   1199.2272    174.9980     1.594     1.484 -63.23
       196     180.2968     45.50428  22.4148   0.2741  7.19    708.5885    163.2212     0.735     0.459 -72.05
       197     327.6514     59.07124  21.7663   0.1958  7.67    279.9593    162.7199     0.733     0.665  -1.03
       198     261.3962     37.66658  22.0115   0.1565  3.90    168.5075    168.5782     0.922     0.901  69.13
       199     2253.866     67.80565  19.6725   0.0327  4.27   1353.4347    185.8884     1.987     1.697  59.00
       200     257.6846     47.56433  22.0271   0.2005  7.43    808.8455    165.3721     0.780     0.432 -19.43
       201      256.857     51.80891  22.0306   0.2190  5.94   1017.1401    172.7149     0.927     0.677  69.38
       202     333.6182     45.50428  21.7467   0.1481  4.70     30.0894    172.6376     1.003     0.822  62.04
       203     4814.621     62.52055  18.8484   0.0141  3.55   1349.0992    191.7546     1.712     1.512  16.10
       204     221.5152     33.91689  22.1913   0.1663  4.62    452.3018    170.5644     1.006     0.478   8.57
       205     125.9248     35.02921  22.8045   0.3021  6.88    838.4955    171.4717     0.505     0.494 -43.01
       206     442854.2     86.24944  13.9391   0.0002  3.50     65.7439    264.9706     2.320     2.184 -53.71
       207     573.2794     51.43751  21.1589   0.0974  3.50     58.0848    182.2549     1.394     1.318 -52.70
       208     22793.56     168.5639  17.1603   0.0080  3.68    560.6461    229.0269     4.374     3.992 -17.58
       209     24514.85     139.9799  17.0812   0.0062  3.50    826.0716    209.8685     5.403     2.476  -8.33
       210     1479.623     101.1838  20.1294   0.0743  5.88   1025.9967    189.4631     1.631     1.509 -55.18
       211     361.4895     65.82557  21.6595   0.1978  7.14    884.2000    180.5604     0.998     0.717  85.03
       212      1763281      100.423  12.4390   0.0001  3.50    437.7657    311.2054     2.720     2.535 -48.87
       213     648.0513     62.53965  21.0258   0.1048  4.12    835.2479    186.3108     1.931     0.987  -8.35
       214     253.8023     35.57233  22.0435   0.1522  3.50    493.7579    183.6736     0.983     0.846  65.18
       215     198.4277       40.131  22.3108   0.2196  8.07   1269.6719    179.6606     0.578     0.333 -45.48
       216     1851.273      100.423  19.8861   0.0589  5.24    266.1726    194.2798     2.243     1.387  -2.71
       217     161.5957     40.60595  22.5337   0.2729  6.45   1386.7466    182.4113     0.729     0.460 -17.96
       218     8949.676     60.67238  18.1753   0.0074  3.50    547.4312    205.7538     1.608     1.549  40.35
       219     141.1326     39.16385  22.6807   0.3014  8.05   1448.2922    185.6551     0.564     0.339  47.71
       220     650.1915     59.71685  21.0222   0.0997  4.67    447.9537    194.9393     1.206     1.115 -42.79
       221     9032.394     61.92348  18.1653   0.0074  3.50   1304.6652    211.3894     1.673     1.557 -27.87
       222     2756.299     67.83378  19.4540   0.0267  3.70    683.0798    209.9510     1.854     1.531 -80.82
       223     181.4492     41.99855  22.4079   0.2514  7.56   1577.4576    190.4934     0.502     0.496  54.24
       224     1890.406     56.75381  19.8634   0.0326  3.84    249.0916    202.5248     1.390     1.265 -30.70
       225     139.1664     26.99182  22.6959   0.2106  3.50   1446.8491    194.6597     0.735     0.622 -69.25
       226      5003.98     123.2262  18.8065   0.0267  4.91    344.0310    221.5973     2.294     2.254  30.85
       227     1907.551      98.6898  19.8536   0.0562  4.76    739.5926    216.6620     2.323     1.539 -43.56
       228       124.55     35.02921  22.8164   0.3054  6.58    110.4758    193.4911     0.508     0.492  45.91
       229     120.0815     22.32683  22.8561   0.2019  3.50   1304.9707    197.0335     0.619     0.599   2.27
       230      213.028     48.36379  22.2337   0.2466  6.02    860.8489    197.1569     0.812     0.662  44.61
       231     576.8107     60.35555  21.1522   0.1136  4.29    182.1948    204.9821     1.352     1.198 -48.24
       232     308.8773     59.39492  21.8303   0.2088  6.81    612.6044    197.9218     1.129     0.575  27.23
       233     186.9329     31.57491  22.3756   0.1834  3.50    626.5485    198.0005     0.822     0.695  -1.29
       234     852.1062     46.33929  20.7285   0.0591  3.50   1224.1332    208.2822     1.233     1.172  -4.16
       235     107.2134     32.17639  22.9792   0.3259  6.87   1220.6672    198.3068     0.565     0.339  43.69
       236     1093.739     76.84502  20.4575   0.0763  4.33    881.0410    216.9154     2.303     1.140 -55.66
       237     528.4617     44.56371  21.2472   0.0916  5.43    935.3230    204.5180     1.270     0.918 -20.39
       238     208.1132     28.37691  22.2590   0.1481  3.50     89.5751    202.3366     0.968     0.648  -7.23
       239     424.0982     43.28236  21.4861   0.1108  3.50    940.4788    205.1467     1.214     0.895  -1.52
       240     125.6158     22.32683  22.8072   0.1930  3.50   1467.2318    203.2010     0.969     0.350 -46.08
       241     4408.368     133.5309  18.9441   0.0329  4.38   1371.3867    251.6859     3.631     2.130 -87.07
       242     10225.11     58.74578  18.0306   0.0062  3.50   1224.5905    223.2718     1.564     1.533  80.14
       243     20198.08     120.7111  17.2915   0.0065  3.65    611.1702    254.5579     3.244     2.779 -43.48
       244     7194.727     90.79765  18.4122   0.0137  3.71    111.1029    243.0098     2.686     1.888 -84.61
       245     3516.006     53.98364  19.1897   0.0167  3.50    773.3535    221.6548     1.418     1.363 -36.44
       246     767.1107     86.69288  20.8426   0.1227  5.98    791.6458    214.1048     1.504     1.156   9.19
       247       187.45     36.10729  22.3726   0.2092  7.01   1197.4851    207.4893     0.505     0.494 -45.28
       248     974.9672      98.6898  20.5823   0.1099  8.06    355.7990    219.1279     1.232     1.012 -76.90
       249      1966.96     129.5963  19.8203   0.0716  6.96    323.4290    226.1910     2.316     1.238 -80.64
       250     192.2112     41.07539  22.3453   0.2321  6.55    777.5554    211.7450     0.738     0.458  70.60
       251     606.4189     86.69288  21.0978   0.1553  6.48    683.1916    220.6225     1.508     0.992  46.07
       252     94.51617     17.51461  23.1160   0.2012  3.67     87.6731    211.3182     0.568     0.338  44.58
       253     290.8533     46.33929  21.8956   0.1730  4.74   1401.1113    220.2639     1.126     0.723  80.38
       254     299.7525     36.63443  21.8629   0.1327  3.50    490.7923    217.6616     1.072     0.859 -53.40
       255     390.4431     68.67647  21.5759   0.1910  7.03   1504.7289    219.1807     1.124     0.701  -2.22
       256     1181.797     51.27012  20.3734   0.0471  5.33    546.2411    229.3538     1.663     1.204 -65.57
       257     125.9444     32.76683  22.8043   0.2825  5.46   1560.2393    220.7335     0.862     0.357 -72.63
       258     2954.485     73.00671  19.3786   0.0268  3.50    837.2929    238.3396     2.022     1.799 -10.06
       259     193.1196     30.96174  22.3402   0.1741  4.19    245.2467    225.0514     0.724     0.680  83.52
       260     321.3147     41.99855  21.7875   0.1419  3.50    672.9175    229.9740     1.424     0.851  39.84
       261     3981.703      177.538  19.0546   0.0484  8.60   1100.0083    241.6524     2.357     1.507  54.36
       262     189.8333     36.63443  22.3589   0.2096  5.06   1180.6602    229.8479     1.066     0.411 -76.11
       263     792.0142     88.87692  20.8079   0.1219  7.12     98.4751    248.7714     1.322     0.970 -78.42
       264     852.1899     51.80891  20.7284   0.0660  3.50   1477.3038    238.8504     1.614     1.141 -72.01
       265      270.166     60.35555  21.9757   0.2426  7.13    693.5746    231.4089     1.127     0.523 -45.41
       266     379.9788     35.02921  21.6054   0.1001  3.50   1551.5948    232.2013     0.980     0.890 -19.77
       267     113.6155     30.33619  22.9162   0.2900  6.08    744.3278    229.2890     0.555     0.343 -42.76
       268      1521686     97.12319  12.5990   0.0001  3.50   1344.3098    350.5143     2.597     2.442 -42.01
       269     168.9856       40.131  22.4852   0.2579  8.40    957.6823    230.6860     0.562     0.341 -44.80
       270      924.103     59.71685  20.6405   0.0702  3.50   1413.2026    247.8824     1.764     1.370  61.07
       271     133.4221     34.47754  22.7417   0.2806  6.01    270.7708    236.2336     0.847     0.346 -72.02
       272     276.3503     48.36379  21.9511   0.1901  7.35    819.7512    233.5576     0.756     0.453  19.67
       273     2048.391     50.49397  19.7762   0.0268  4.14    105.7783    249.4535     1.537     1.318  26.44
       274      1602719      96.1311  12.5426   0.0001  3.50    889.1550    350.4241     2.592     2.414 -34.83
       275     302897.8     88.22739  14.3515   0.0003  3.50    903.7697    317.8345     2.392     2.212 -53.57
       276     103507.7     74.30818  15.5173   0.0008  3.50   1484.9954    286.7191     1.961     1.920 -68.01
       277     761.0654     57.42548  20.8512   0.0819  4.01   1549.2133    250.5356     1.442     1.173  72.79
       278     162.2602     40.60595  22.5293   0.2718  6.42    250.7633    238.5711     0.770     0.447  19.82
       279     1310.042     48.36379  20.2616   0.0401  3.50   1351.3315    252.4571     1.310     1.234  84.18
       280     276.1902     52.17766  21.9518   0.2052  5.31    639.7395    244.0667     0.940     0.844  40.18
       281      10326.5     101.9389  18.0199   0.0107  3.96    593.7028    326.5882     2.377     2.338  20.87
       282     641.1639      48.7586  21.0374   0.0826  3.50    149.8020    248.8569     1.351     1.188 -15.27
       283     918.3966     86.69288  20.6472   0.1025  7.54   1121.8363    252.5183     1.296     0.847  85.67
       284     435.9635      38.1722  21.4562   0.0951  3.50    561.0638    247.7354     1.092     0.911 -28.22
       285     158.8332       40.131  22.5524   0.2744  8.29   1153.2944    242.3574     0.570     0.336 -47.97
       286     314.2637     37.66658  21.8115   0.1302  3.50    693.4310    252.0880     1.124     0.852  78.99
       287     226.6821     46.75121  22.1662   0.2240  6.36    933.1771    248.1375     0.758     0.568  48.29
       288     1049.497     76.09285  20.5023   0.0787  4.79    121.8477    264.2294     1.730     1.197  62.74
       289     1168.391     74.04972  20.3858   0.0688  3.81    723.0342    263.9901     1.971     1.539 -61.50
       290     22766.09     66.11619  17.1616   0.0032  3.50   1520.9075    281.0664     1.797     1.662  71.08
       291     118.2282     21.45092  22.8730   0.1970  3.50    811.1948    251.6251     0.744     0.444 -18.86
       292     723.3193      78.5721  20.9065   0.1180  5.57   1386.8129    267.6201     1.637     1.008  69.31
       293     438.6408      42.4526  21.4495   0.1051  3.57   1207.9370    261.6269     1.274     0.950  59.56
       294     2579.314     84.22504  19.5260   0.0355  4.61   1272.1417    270.0314     1.777     1.544  18.02
       295     432.5129      56.0741  21.4648   0.1408  4.68    481.5285    260.7066     1.267     0.945  21.71
       296     38476.34      131.552  16.5918   0.0037  3.50    865.4147    345.4298     3.040     2.491  80.09
       297     75572.91     73.53007  15.8589   0.0011  3.50    199.9301    302.1455     1.955     1.907 -89.88
       298     194.6015     42.90185  22.3319   0.2394  7.51   1063.4871    259.9832     0.774     0.321  57.08
       299     1380.533      95.5309  20.2047   0.0751  7.43    367.9087    267.9335     1.257     1.099  25.52
       300     8796.125     77.34241  18.1941   0.0095  3.50    513.3643    288.8429     2.021     1.977  39.58
       301      174.589       40.131  22.4497   0.2496  7.10    285.5065    264.9986     0.814     0.307 -58.44
       302     5786.715     109.9033  18.6487   0.0206  3.50   1411.9720    296.6458     4.150     1.961 -40.64
       303     4128.427     66.81921  19.0153   0.0176  3.79   1474.2158    292.5143     1.818     1.654  62.12
       304     646.5276     85.35564  21.0283   0.1434  6.06    724.4274    272.1432     1.418     1.162  -7.38
       305     782.9989     86.69288  20.8204   0.1202  5.70   1376.2535    275.6843     1.560     1.220  42.47
       306     215.2988     49.92431  22.2222   0.2518  6.01    220.8962    270.7878     1.080     0.529  54.59
       307     311.3593     44.22221  21.8216   0.1542  4.83   1308.6724    267.9897     0.981     0.730  19.78
       308     147.4846     26.27191  22.6329   0.1935  3.50      9.1662    267.8555     0.771     0.557 -49.07
       309     154.4273     35.02921  22.5830   0.2463  6.71    205.5227    265.5122     0.502     0.497  47.23
       310     437.4991     36.63443  21.4523   0.0909  3.52   1248.8051    270.5044     0.963     0.930  65.80
       311     570.6296     69.78423  21.1639   0.1328  5.82   1369.2175    274.5730     1.282     0.948 -38.64
       312     198.3159     29.04469  22.3114   0.1591  3.50    524.1605    272.0453     0.850     0.664 -49.77
       313     9663.365     60.98756  18.0920   0.0069  3.50   1326.0414    293.0510     1.613     1.579 -10.04
       314     580.9067     50.30688  21.1445   0.0940  3.85    555.8154    278.5692     1.448     0.961  14.36
       315     612.3714     86.47144  21.0872   0.1534  7.01    780.2872    291.5921     1.405     0.905  32.09
       316     1823.787     110.7721  19.9023   0.0660  7.58    413.7672    287.0626     1.590     1.112 -16.38
       317     293.7229     63.45269  21.8849   0.2346  8.17    209.3042    276.5894     1.032     0.473   8.41
       318     385.6732      42.4526  21.5892   0.1195  3.50    336.6898    285.1876     1.302     0.956 -68.94
       319     429.8468     51.63222  21.4715   0.1304  6.30    887.1893    289.0791     1.592     0.832 -88.83
       320     381.4039       40.131  21.6013   0.1143  3.50   1349.6730    286.9847     1.126     0.990 -84.29
       321     155.1459     26.27191  22.5779   0.1839  3.50    473.8391    281.8306     0.752     0.560  49.47
       322     50229.22     70.60364  16.3024   0.0015  3.50    695.6044    321.1594     1.846     1.823  46.54
       323     4168.103     60.98756  19.0049   0.0159  3.50    561.8895    301.3160     1.606     1.546  76.42
       324     1111.315     52.54382  20.4402   0.0513  3.50    246.6687    291.4958     1.474     1.240 -35.23
       325     2895.163      97.3204  19.4006   0.0365  4.20     83.4456    307.5620     2.540     1.735  68.46
       326     374.4535     51.80891  21.6213   0.1503  4.70   1409.7465    287.1929     1.039     0.960  87.48
       327      234.655     52.54382  22.1287   0.2432  8.17   1300.4161    287.2063     0.744     0.454  70.94
       328     151.4871     28.37691  22.6038   0.2034  4.12   1131.0371    286.8069     0.791     0.500  54.79
       329     106.8709     30.33619  22.9826   0.3083  6.11    870.2968    284.6380     0.573     0.334  47.95
       330     873.1796     68.95508  20.7020   0.0858  5.62    885.7322    294.5054     1.280     0.971 -20.69
       331     364.5121     60.67238  21.6505   0.1808  5.82    263.6704    291.5883     1.027     0.876  49.71
       332     229.1264     34.47754  22.1546   0.1634  4.37      4.7602    289.9483     0.799     0.655 -54.50
       333     207.4312     44.65366  22.2626   0.2338  8.42   1547.4956    287.5217     0.501     0.499 -38.87
       334     424.7843     64.05415  21.4844   0.1638  5.59   1215.2859    293.5145     1.300     0.839  -8.28
       335     4482.043     95.93145  18.9261   0.0232  3.50    639.5872    320.4817     2.699     2.323 -82.13
       336     309.8915     60.03705  21.8268   0.2104  6.11   1251.6766    298.3178     1.235     0.639 -89.62
       337     245.4501     52.54382  22.0799   0.2325  6.41    796.0818    294.1631     0.853     0.674 -43.18
       338     84.18915     21.45092  23.2416   0.2767  4.80     44.3149    291.6792     0.564     0.340  45.31
       339     974.8619     72.47958  20.5824   0.0807  4.27    315.6595    310.6693     1.810     1.318  81.18
       340     546.0381     80.50053  21.2117   0.1601  5.60   1450.1981    315.6604     1.872     0.904   4.96
       341     192.2954     30.33619  22.3449   0.1713  3.50    849.5167    314.1695     1.081     0.574 -26.74
       342     547.3729      42.4526  21.2091   0.0842  3.50    983.5506    308.9285     1.184     1.028 -72.46
       343      520.542     55.73114  21.2636   0.1163  3.50   1267.5922    313.3775     1.596     1.325 -68.74
       344     1464.172     65.53366  20.1408   0.0486  3.50    954.0701    323.7086     1.881     1.516  31.74
       345     382.3662     60.03705  21.5986   0.1705  5.88    152.4573    313.0439     1.240     0.701  45.19
       346     151.5711      38.6712  22.6032   0.2771  5.81     30.2251    305.5895     0.757     0.450 -19.12
       347     146.1842     39.65038  22.6425   0.2946  6.02    748.3986    308.8302     0.755     0.445 -70.34
       348     175.2089     37.15409  22.4459   0.2303  7.68   1359.6498    307.3268     0.582     0.331  44.06
       349     879.5952     49.92431  20.6941   0.0616  3.50    225.1813    316.0054     1.590     1.115  -9.16
       350     353.6534     63.14981  21.6833   0.1939  8.05   1285.4546    312.3205     0.942     0.539  31.25
       351     261.5782       40.131  22.0108   0.1666  4.33   1494.7306    312.9358     0.966     0.727  16.01
       352     154.5434     35.02921  22.5822   0.2462  6.46     20.4756    310.4094     0.501     0.490  22.65
       353     28039.93     83.30953  16.9353   0.0032  3.50    430.0775    354.8703     2.261     2.061  64.17
       354     225.4025     48.36379  22.1724   0.2330  6.08     14.1124    315.1960     0.804     0.639 -42.26
       355     158.9036     35.02921  22.5519   0.2394  6.54   1414.4575    314.4689     0.505     0.492 -46.81
       356     1758.748     56.41498  19.9418   0.0348  3.88   1544.6244    328.4428     1.366     1.289 -34.89
       357     604.2555     75.07824  21.1017   0.1349  6.55    574.4576    320.5959     1.213     0.895  18.87
       358     935.5128     74.42113  20.6272   0.0864  6.83    456.0885    333.4141     2.357     1.194  68.94
       359     480.0947     39.16385  21.3515   0.0886  3.50    340.3036    323.8167     1.029     0.983  19.38
       360     335.0977     55.38605  21.7419   0.1795  6.05   1533.9971    322.1786     0.918     0.749  87.68
       361     2105.941     49.92431  19.7462   0.0257  3.50     91.5709    331.3851     1.339     1.266 -44.52
       362     246.1147      48.7586  22.0769   0.2152  7.53     16.2800    319.6090     0.756     0.454 -17.31
       363     298.7602     46.75121  21.8665   0.1699  4.61    242.3652    328.1386     1.211     0.724 -51.81
       364     309.7606     52.17766  21.8272   0.1829  6.19   1094.9318    323.0281     0.803     0.777 -42.88
       365     132.3411     32.17639  22.7505   0.2640  6.82    744.6513    320.6865     0.575     0.334 -43.45
       366     1222.345     102.1268  20.3368   0.0907  7.98    918.1282    329.4360     1.284     1.066  70.16
       367     123.8367     32.17639  22.8227   0.2822  6.77    278.3282    323.3200     0.569     0.338 -44.60
       368     1918.994     56.75381  19.8471   0.0321  4.04   1438.9836    334.1949     1.320     1.215 -15.58
       369     385.4977     41.53954  21.5897   0.1170  3.50    621.9592    335.1501     1.237     0.952 -68.37
       370     731.6902     80.73835  20.8940   0.1198  5.98    609.4287    335.4521     1.377     1.101 -12.23
       371      4677.84      58.4185  18.8797   0.0136  3.50     52.9605    349.0431     1.530     1.497  78.10
       372     1366.717      69.2863  20.2156   0.0551  4.48    804.1315    338.4816     2.636     1.130  -9.80
       373     564.1566     45.10624  21.1763   0.0868  4.97    811.3510    336.1013     1.293     1.015  -8.28
       374     133.1614     37.15409  22.7438   0.3030  7.58    217.6672    328.6815     0.571     0.337 -44.33
       375     255967.1     80.02278  14.5343   0.0003  3.50    229.6259    394.2400     2.145     2.039 -54.31
       376     20379.64     83.20963  17.2818   0.0044  3.50    441.0580    366.4008     1.871     1.800  70.27
       377     238.5917     44.65366  22.1106   0.2033  8.38    561.5300    331.5080     0.507     0.492  46.61
       378     134.3285     35.57233  22.7344   0.2876  6.12    205.9888    331.7751     0.679     0.417  -0.50
       379     53223.26     92.24654  16.2395   0.0019  3.50    759.5043    367.2393     1.873     1.822  14.67
       380     327.0787      48.7586  21.7682   0.1619  4.74   1502.2362    340.1101     1.122     0.797 -54.37
       381     161.6315     40.60595  22.5335   0.2728  6.37   1404.6276    336.8485     0.793     0.429  70.40
       382     232.9083       40.131  22.1368   0.1871  8.12    414.3281    334.3103     0.565     0.340 -44.10
       383     323.2646     59.39492  21.7809   0.1995  6.11    816.4380    343.6645     1.172     0.673  37.67
       384     135.2627     30.96174  22.7268   0.2486  6.33    730.6944    338.3127     0.556     0.344  45.41
       385     933.2601     51.80891  20.6298   0.0603  3.83     40.9459    347.0804     1.378     1.105 -32.76
       386     9308.533     65.24044  18.1326   0.0076  3.50   1498.8510    360.3766     1.858     1.544 -13.39
       387     99.90848     33.91689  23.0558   0.3687  7.18    572.6766    341.3140     0.565     0.340  44.52
       388     3315.201     73.18024  19.2535   0.0240  4.09    752.1785    374.3496     2.841     1.498  53.84
       389     556.5562     61.30112  21.1910   0.1196  4.31   1578.7386    352.6108     1.596     1.057 -47.11
       390     482.1382     55.99213  21.3469   0.1261  6.30    537.7733    352.2996     1.486     0.911 -48.56
       391     105.2564     33.34682  22.9992   0.3441  5.65     15.7753    345.0160     0.674     0.417  89.26
       392     1917.041      64.9459  19.8482   0.0368  3.92    531.6178    358.7110     1.572     1.423 -40.26
       393     430.4802     46.33929  21.4699   0.1169  3.50    350.3214    353.5159     1.714     0.844  47.06
       394     306.6076     53.98364  21.8383   0.1912  5.90   1590.5500    346.0386     1.026     0.657 -29.02
       395     198.9099     47.15952  22.3081   0.2575  5.98   1153.8345    346.3549     0.752     0.657  67.87
       396     115.2643     24.76939  22.9005   0.2334  4.92    988.4659    343.5217     0.504     0.494  47.08
       397     1445.037     60.67238  20.1551   0.0456  3.61   1414.2233    362.4120     1.707     1.374  81.59
       398     127.7726     33.91689  22.7887   0.2883  7.32    104.6243    344.3210     0.589     0.325  43.04
       399     537.6345     70.87467  21.2286   0.1432  5.25   1046.2070    358.4392     1.596     0.948 -61.60
       400     317.3107      55.0388  21.8011   0.1884  6.37    176.5816    352.8005     1.277     0.489  86.68
       401     111968.1     73.79035  15.4320   0.0007  3.50    835.7706    414.6587     1.954     1.893 -85.06
       402     2399.629      53.2686  19.6044   0.0241  3.50   1032.4879    359.7290     1.475     1.309  11.00
       403     556.0804     45.08098  21.1919   0.0880  3.91   1396.9204    355.1596     1.112     0.987  45.33
       404     780.6594     80.26201  20.8236   0.1117  5.13    368.2384    360.5992     1.574     1.276 -62.94
       405     194.8383     42.90185  22.3306   0.2391  7.72   1532.4958    351.0282     0.785     0.318 -57.44
       406     434.4886     70.05843  21.4598   0.1751  6.49    825.6769    354.2082     1.100     0.882  34.20
       407     231.1512     45.92369  22.1450   0.2158  6.85   1462.5216    352.1055     0.797     0.499 -88.89
       408     230.2458      48.7586  22.1493   0.2300  6.71    156.8034    351.9984     0.930     0.467 -53.15
       409     727599.9     86.47144  13.4000   0.0001  3.50    806.0018    460.3331     2.332     2.173 -40.82
       410     2455.971     70.87467  19.5792   0.0313  3.50   1082.2998    372.3132     1.870     1.843  53.55
       411     177.8778     28.37691  22.4295   0.1732  3.50    688.8477    354.1820     0.828     0.663  45.68
       412     244.2167     47.96572  22.0853   0.2133  5.23   1449.0913    359.8650     1.038     0.675  80.26
       413     142.3753     32.17639  22.6712   0.2454  6.92   1521.6913    352.6567     0.571     0.337 -46.63
       414     93.72935     21.45092  23.1251   0.2485  4.15    983.6541    352.3044     0.570     0.337  43.03
       415     910.3777     87.13407  20.6567   0.1039  7.09      1.9439    380.4715     2.120     0.912  89.46
       416     451.1738     69.50894  21.4189   0.1673  6.80    926.0009    358.2084     1.026     0.859   1.98
       417     1699.597      58.4185  19.9789   0.0373  3.50     69.8814    369.5000     1.645     1.432 -51.78
       418     529.6838      76.3444  21.2447   0.1565  7.26    222.5785    366.9734     1.237     0.727  -8.77
       419     2932.548     53.62731  19.3867   0.0199  3.50    990.9773    371.9071     1.457     1.374  45.43
       420     362.8088     56.41498  21.6556   0.1689  6.20     14.9967    361.8579     0.893     0.757  89.27
       421     1419.933      56.0741  20.1741   0.0429  3.89    123.8884    379.1671     1.347     1.282 -76.20
       422     552.9487     61.61309  21.1981   0.1210  5.00    940.2579    365.3350     1.214     1.054   6.58
       423     1271.303     79.30075  20.2942   0.0677  4.64    208.9410    368.4034     1.863     1.286  -8.65
       424     256.4488     44.65366  22.0323   0.1891  7.93    605.5088    359.5434     0.510     0.488  42.63
       425      36021.6     68.95508  16.6634   0.0021  3.50   1459.7269    396.1930     1.807     1.754 -75.22
       426     226.4932      48.7586  22.1671   0.2338  6.07    950.0860    362.9084     0.814     0.662  41.83
       427     41011.67     69.50894  16.5225   0.0018  3.50    352.8756    397.1577     1.842     1.760 -53.96
       428     4117.073     111.2901  19.0183   0.0294  4.12    625.3726    395.5249     2.765     2.203  89.42
       429     1453.555     111.8058  20.1487   0.0835  6.02      9.2998    381.9778     1.922     1.492 -78.98
       430     233202.1     78.08254  14.6354   0.0004  3.50    431.5817    418.7104     2.058     2.010 -39.52
       431     925.1633     45.08098  20.6392   0.0529  3.50     85.5410    374.2495     1.221     1.147 -28.37
       432     44383.01      206.566  16.4367   0.0051  3.54    848.9323    466.8614    11.147     2.874  22.59
       433     241.0686     48.36379  22.0994   0.2179  7.42   1560.3879    368.7527     0.761     0.450 -72.24
       434      274.327     55.38605  21.9591   0.2193  7.02    412.9188    368.7209     0.734     0.694  14.19
       435     1292.584     66.11619  20.2761   0.0555  4.00     65.5813    381.5385     1.661     1.339  39.78
       436     116.1102     30.96174  22.8926   0.2896  6.34   1196.3129    367.3142     0.560     0.342 -45.07
       437     639.9336     52.54382  21.0394   0.0892  3.93    510.4206    379.2421     1.375     1.066 -51.67
       438      343.687     37.66658  21.7144   0.1190  3.50    139.7661    377.0369     1.221     0.830 -62.87
       439     8649.402     61.61309  18.2123   0.0077  3.50   1087.1205    392.8748     1.647     1.569  29.27
       440     285.1703     41.99855  21.9170   0.1599  4.48   1459.4363    377.9067     1.096     0.677 -87.87
       441     218.3034      48.7586  22.2071   0.2426  7.46    252.5824    376.2024     0.753     0.447 -69.93
       442     157.7934     41.07539  22.5596   0.2827  6.82    284.2729    376.9704     0.673     0.445  88.18
       443     2227.099     129.1517  19.6854   0.0630  6.51      2.5710    410.5494     3.687     1.368 -89.18
       444     2863.901     111.9771  19.4124   0.0425  4.96    525.0594    402.7701     2.582     1.617  61.06
       445     285.0853     51.06342  21.9173   0.1945  5.26   1483.7833    381.3737     1.024     0.784 -60.41
       446     116.5646     30.96174  22.8884   0.2885  6.20   1057.3267    376.6537     0.580     0.332  45.82
       447     504.7884     75.33317  21.2970   0.1621  6.80    248.4999    382.6249     1.300     0.775  23.96
       448     4554.928     157.5098  18.9086   0.0376  4.76    132.6434    420.6354     3.562     2.541 -33.37
       449     1048.844     51.80891  20.5030   0.0536  3.84   1193.9370    388.1313     1.276     1.183 -65.95
       450     297.9164     52.54382  21.8695   0.1915  6.78    933.9092    380.7011     0.841     0.592 -27.29
       451     303.0203     49.53879  21.8511   0.1775  7.66    183.2391    378.4176     0.764     0.453  18.44
       452     225.9008     30.96174  22.1700   0.1488  3.60    101.0806    385.5501     1.015     0.653  61.05
       453     671.2704     41.53954  20.9875   0.0672  3.50    259.1220    388.9189     1.124     1.074 -69.24
       454     431.0475     37.15409  21.4685   0.0936  3.60   1166.5677    389.7974     0.997     0.921  70.41
       455     144.1264     30.33619  22.6579   0.2286  5.64   1250.5100    382.4892     0.505     0.495 -44.96
       456     1480.685     54.33764  20.1286   0.0399  3.50    976.1292    395.6221     1.514     1.333 -38.37
       457     495.2845     50.30688  21.3176   0.1103  3.50    144.3320    393.4943     1.465     1.170  85.98
       458     740.9667     50.30688  20.8803   0.0737  3.50     93.8454    390.9529     1.448     1.168  -2.33
       459     104.0585     39.16385  23.0116   0.4087  7.96    542.3329    384.6787     0.572     0.336  44.46
       460      411.586      58.4185  21.5186   0.1541  5.20   1063.9821    390.3975     1.132     0.912 -27.58
       461      163.405       40.131  22.5216   0.2667  5.54    783.1668    387.8538     0.751     0.569 -44.13
       462     397.8619     45.50428  21.5555   0.1242  4.40    682.3224    391.6596     1.012     0.895  44.89
       463     196.9021     43.34644  22.3192   0.2391  5.86    864.3759    393.0943     1.063     0.424 -76.14
       464     163.9035       40.131  22.5183   0.2659  8.13    416.6890    389.3262     0.564     0.340  45.78
       465     19857.28     66.11619  17.3100   0.0036  3.50    924.7996    423.2087     1.738     1.701 -66.20
       466     619.0319     63.75413  21.0755   0.1118  5.05    811.0517    400.4389     1.236     1.065  52.62
       467     26034.35     69.23256  17.0159   0.0029  3.50     19.5199    449.3137     1.866     1.739  63.87
       468     82906.13     74.82243  15.7583   0.0010  3.50    250.2734    436.9836     1.980     1.944  86.90
       469     1402.382     66.11619  20.1876   0.0512  3.61   1560.8842    412.3541     2.245     1.257 -58.84
       470     369.5991     44.22221  21.6355   0.1299  3.50    984.5423    401.0038     1.527     0.856  17.38
       471     1397.158     72.74362  20.1917   0.0565  5.41   1579.2588    418.9851     1.282     1.191 -52.79
       472     4850.609     80.97546  18.8403   0.0181  3.63    157.4299    419.8281     2.168     1.900  39.12
       473     163.7069     33.34682  22.5196   0.2212  4.14   1256.8677    397.9663     0.834     0.659 -45.45
       474     1636.599     77.09412  20.0199   0.0512  3.68    557.6003    414.2032     2.088     1.727  64.56
       475     173.2189     35.57233  22.4583   0.2230  5.51     85.6291    416.4786     1.081     0.311  69.11
       476     1110.676     45.50428  20.4408   0.0445  3.50    280.5304    406.1557     1.303     1.134 -28.53
       477       390.87     70.87467  21.5747   0.1969  7.88    555.8255    396.5229     1.314     0.498   1.95
       478     324.3871     57.09063  21.7771   0.1911  6.59   1108.8458    402.7064     0.933     0.661 -66.25
       479     116.4503     37.15409  22.8894   0.3465  7.69    777.7017    397.6904     0.551     0.345 -45.69
       480     3628.268     110.7721  19.1555   0.0332  3.73    717.5703    429.9631     3.016     2.405  57.26
       481     896.1337     59.71685  20.6738   0.0724  3.50    938.5885    416.0214     2.307     1.090  40.70
       482     1338.889     73.00671  20.2379   0.0592  4.18   1202.9171    417.9291     1.632     1.563  45.15
       483     3008.329     94.52209  19.3590   0.0341  4.19   1177.7318    425.8517     2.317     1.805  39.54
       484     1164.263     53.98364  20.3897   0.0504  3.50    772.8982    418.4394     1.483     1.376 -65.66
       485     332.5064      47.5647  21.7503   0.1554  6.50    151.5678    411.4237     1.304     0.772  56.25
       486     174.1076     26.27191  22.4527   0.1639  3.50    110.5584    409.2469     0.981     0.478  80.90
       487       391.92     59.07124  21.5718   0.1637  7.61    185.2910    409.9267     0.733     0.677 -74.65
       488     643.6749     81.44763  21.0331   0.1374  6.91    178.8826    413.4157     1.344     0.867 -23.51
       489     891.6253     89.52174  20.6793   0.1090  5.01    629.7222    421.9521     1.952     1.366 -12.86
       490     336.0671     60.35555  21.7387   0.1950  5.99    674.8621    415.5027     1.309     0.636 -22.72
       491     6490.793     60.98756  18.5240   0.0102  3.50   1420.5210    432.0724     1.617     1.521 -18.55
       492     3104.171     59.39492  19.3249   0.0208  3.50   1094.6223    460.1038     1.703     1.376  43.36
       493     398.9031     51.43751  21.5526   0.1400  4.38   1294.8550    417.3847     1.219     0.957  11.24
       494     530.0538     50.68656  21.2440   0.1038  4.50   1090.8622    419.8630     1.067     0.994  70.14
       495     109.2067     30.96174  22.9592   0.3079  6.28   1568.2864    413.3489     0.562     0.339 -48.25
       496     893.4243     57.42548  20.6771   0.0698  4.34   1062.3312    423.4278     1.242     1.143  -2.41
       497     1375.004     86.30117  20.2090   0.0682  5.01    118.4703    434.6857     2.147     1.781  60.46
       498     392.7846     62.23233  21.5694   0.1721  6.90    669.9879    419.7632     0.897     0.757 -85.83
       499     812.6013     45.08098  20.7801   0.0602  3.92    298.2651    425.2862     1.069     1.041 -77.02
       500     2575.903     53.98364  19.5275   0.0228  3.50    149.3924    433.0621     1.504     1.360  25.90
       501      459.445       40.131  21.3992   0.0949  3.68   1007.3088    425.6814     1.118     0.864 -47.41
       502     116928.8     239.4286  15.3850   0.0022  3.50    517.1163    532.0609     6.914     5.627  29.08
       503     295.5999     49.15024  21.8780   0.1806  5.48    788.9659    425.5082     1.063     0.653  64.50
       504      597.842     77.34241  21.1133   0.1405  6.84    239.9843    425.8796     1.248     0.855  -8.30
       505     4153.439     67.26612  19.0088   0.0176  3.50    120.4110    444.1223     1.871     1.710 -28.57
       506     765.0746     43.78652  20.8455   0.0622  3.50    404.9097    432.5742     1.205     1.101 -42.18
       507     13363.75     139.7057  17.7400   0.0114  3.50     80.7813    494.5284     4.585     2.877  81.62
       508     29346.31     70.05843  16.8859   0.0026  3.50     32.7309    456.8186     1.830     1.791  30.10
       509     422.6732     40.60595  21.4898   0.1043  3.64   1307.2822    429.4273     1.138     0.949  -4.57
       510     672.9106     46.33929  20.9849   0.0748  3.86    351.7798    432.8598     1.126     1.062  36.61
       511     4720.184     91.63839  18.8699   0.0211  3.50    882.1432    446.5086     2.936     1.918   6.86
       512     2860.821     51.43751  19.4136   0.0195  3.50    303.9975    439.0473     1.382     1.351  54.55
       513     230.8273     47.96572  22.1466   0.2257  6.28    585.7042    430.9972     0.712     0.680 -79.34
       514     753.8597     80.26201  20.8616   0.1156  5.84   1381.0646    436.8752     1.326     1.199  -7.80
       515     411.1506     68.39673  21.5198   0.1807  6.83   1051.6034    434.5554     1.289     0.637 -48.23
       516     1055.478     60.98756  20.4962   0.0628  4.31    172.7270    442.8046     1.365     1.230 -54.08
       517     639.5035     56.75381  21.0402   0.0964  4.42    957.9713    441.4017     1.209     1.106 -22.16
       518        253.6     33.34682  22.0444   0.1428  3.50     52.4071    436.3468     0.900     0.795 -20.99
       519      1214.96     63.45269  20.3434   0.0567  4.66    653.5318    442.8622     1.299     1.164  22.08
       520     415.2151      55.0388  21.5091   0.1440  4.47    766.9615    445.0895     1.507     0.869 -56.87
       521     143.2778     35.02921  22.6643   0.2655  6.56   1140.9634    436.4574     0.806     0.309  31.67
       522     920.6641     65.53366  20.6445   0.0773  4.92   1504.0204    444.7648     1.309     1.133 -16.90
       523      237.175     43.78652  22.1171   0.2005  5.62   1566.2584    442.5858     0.932     0.545 -55.81
       524       9163.8     63.14981  18.1496   0.0075  3.50    466.8788    462.6940     1.735     1.604  42.32
       525     1519.772     52.17766  20.1003   0.0373  3.88   1531.8187    452.0334     1.268     1.226   9.47
       526      161.939     30.96174  22.5314   0.2076  4.95    353.6387    443.1996     0.768     0.440 -72.26
       527     218.1743     36.63443  22.2078   0.1824  4.34    404.1101    446.7357     0.939     0.659  70.52
       528     123.1747     32.17639  22.8285   0.2837  6.98   1356.6365    441.7099     0.570     0.335 -41.56
       529     1932.322     123.0705  19.8396   0.0692  6.49   1518.2559    479.9106     2.090     1.427 -45.49
       530     1019.099     67.26612  20.5342   0.0717  3.50    128.0902    464.0346     2.319     1.331 -38.59
       531     1033.624     64.05415  20.5189   0.0673  4.43   1222.8571    453.5497     1.426     1.205 -58.06
       532      566.851     46.75121  21.1711   0.0896  3.50   1129.8632    450.7897     1.286     1.134  32.09
       533     126.4767     30.96174  22.7998   0.2659  4.97    566.6287    445.8544     0.754     0.439  70.72
       534     8196.133     69.50894  18.2708   0.0092  3.50    252.7740    470.6353     2.088     1.577  50.80
       535     378.9038     47.15952  21.6085   0.1352  4.74   1353.2029    449.5328     0.941     0.920  25.18
       536      2299.15     79.54216  19.6509   0.0376  4.13    723.5401    460.5086     2.123     1.446 -11.25
       537     13181.23     135.6676  17.7549   0.0112  3.65   1185.1497    495.0340     3.967     2.879 -24.16
       538     1481.015     85.57996  20.1284   0.0628  4.39   1131.1205    472.4119     2.733     1.145  86.24
       539     318.0573     54.33764  21.7985   0.1855  5.27   1359.0487    452.5387     0.990     0.913 -56.48
       540     11622.12     62.53965  17.8916   0.0058  3.50    733.2321    471.0788     1.657     1.604 -16.91
       541     15007.15     63.45269  17.6140   0.0046  3.50    921.4038    477.0018     1.671     1.635 -54.46
       542     397.5106     39.16385  21.5564   0.1070  3.63   1383.6884    458.1005     1.136     0.888 -79.47
       543     333.1648     60.67238  21.7481   0.1978  5.34   1235.6360    456.2366     1.126     0.964   3.31
       544     130.9125     33.91689  22.7623   0.2814  7.17   1411.6713    451.6819     0.569     0.338 -44.49
       545     143.0673     35.02921  22.6659   0.2659  6.81    772.5231    451.4531     0.501     0.496  35.25
       546     3722.164     96.33034  19.1278   0.0281  4.17    838.0984    488.1837     3.256     1.379 -88.58
       547     1372.881     86.47144  20.2107   0.0684  5.15   1196.8444    466.0807     1.592     1.489 -29.10
       548     329.3737     51.43751  21.7606   0.1696  6.32    483.0061    456.0196     0.787     0.767  41.69
       549      5575.97     61.30112  18.6890   0.0119  3.50   1275.5004    477.1063     1.656     1.498  21.67
       550      858.508     64.05415  20.7204   0.0810  4.87    559.8113    464.9789     1.250     1.157  31.71
       551      1643472      104.905  12.5154   0.0001  3.50   1314.5089    586.8758     3.044     2.429 -36.97
       552     131.7238     35.02921  22.7556   0.2888  6.25    953.4660    459.5353     0.504     0.493  44.77
       553     1626.468     55.38605  20.0267   0.0370  3.50    681.0449    478.1735     1.703     1.209 -71.64
       554     156.7926     44.65366  22.5665   0.3093  7.81   1153.5055    461.5088     0.501     0.499  44.49
       555     6302.995      58.4185  18.5559   0.0101  3.50   1069.1091    482.9951     1.512     1.481 -42.55
       556     296.5358     55.38605  21.8746   0.2028  7.64   1047.8453    464.8310     0.774     0.562  47.33
       557      270.049     56.75381  21.9762   0.2282  6.94    200.6091    465.1911     0.871     0.613 -12.08
       558     129.3628     36.10729  22.7753   0.3031  7.54    438.3098    462.3322     0.566     0.339 -46.11
       559     965.3937     67.46988  20.5930   0.0759  4.32    426.8741    483.2540     2.005     1.397  88.28
       560     367.8402     41.07539  21.6406   0.1213  3.50    662.3205    468.3809     1.127     0.986  13.23
       561     1147.101     49.92431  20.4058   0.0473  3.50   1166.7299    475.0398     1.401     1.156  20.51
       562     1301.572     94.31905  20.2686   0.0787  6.48    780.1716    471.7787     1.540     1.135  -4.96
       563     1449.819      71.5205  20.1515   0.0536  4.14    422.9882    487.8908     2.782     1.341 -37.10
       564     202.6558     29.04469  22.2879   0.1556  3.50   1357.0732    472.5253     0.861     0.672 -48.52
       565      1320.96     61.92348  20.2526   0.0509  4.17   1308.4080    480.2824     1.408     1.278  -7.34
       566      2559406     109.7287  12.0344   0.0000  3.50    481.5370    630.2482     2.949     2.750 -33.85
       567     61106.18     92.19265  16.0896   0.0016  3.50   1300.7521    511.5094     1.867     1.805  69.73
       568     7144.659      98.6898  18.4198   0.0150  3.50    761.0204    503.2186     2.921     2.279 -13.45
       569     17404.83     124.4647  17.4531   0.0078  3.50   1459.6692    514.5886     5.155     2.041  24.72
       570     638.5804     61.30112  21.0417   0.1043  4.86    827.2849    485.2306     1.360     0.988  42.70
       571      122.078     22.32683  22.8382   0.1986  4.08     34.0000    479.9864     0.835     0.289  90.00
       572     263.4467     47.56433  22.0030   0.1961  4.64    253.4831    484.2932     1.139     0.763 -38.21
       573      150.543     35.02921  22.6106   0.2527  7.49   1562.3087    479.3445     0.571     0.336 -46.67
       574     2393.349     66.12752  19.6073   0.0300  3.98   1308.7645    500.9388     2.221     1.513 -58.90
       575     329.5639      53.2686  21.7599   0.1755  5.78   1228.1722    484.0342     0.915     0.746  -7.09
       576      606.187     88.22739  21.0983   0.1581  7.33    565.3867    487.1664     1.278     0.942 -17.80
       577     293.4369     41.99855  21.8860   0.1554  4.37    941.5776    484.8776     0.985     0.733  15.14
       578     196.4394      38.1722  22.3217   0.2110  5.11    344.3690    485.2306     0.712     0.646 -27.76
       579     3905.289      55.0388  19.0756   0.0153  3.50    862.2157    501.1111     1.472     1.406 -18.86
       580     1012.751     92.47148  20.5410   0.0992  8.13    485.6808    522.4850     1.274     0.834 -10.23
       581     736.0199     52.90745  20.8876   0.0781  3.87   1419.8350    494.5099     1.370     1.148  -6.13
       582     831.8981      58.4185  20.7546   0.0763  4.70    572.9436    492.1417     1.168     1.074 -39.95
       583     173.4314     28.37691  22.4570   0.1777  3.50   1357.8916    487.1296     0.838     0.663  48.55
       584     3818.889      77.5899  19.0999   0.0221  3.50    162.4788    509.0158     2.728     1.504  -6.30
       585     1591.602      48.7586  20.0502   0.0333  3.50    364.6641    497.0102     1.355     1.179   8.05
       586     209.7343     29.69746  22.2506   0.1538  3.50   1345.5840    490.0591     0.907     0.675  21.54
       587     417.6626     68.39673  21.5027   0.1778  7.57    673.0743    493.6511     1.159     0.579 -62.85
       588     211.3685     52.17766  22.2422   0.2681  7.70   1582.3746    488.2088     0.964     0.397  -5.84
       589     250.7201     51.06342  22.0568   0.2212  6.81   1002.7076    491.9545     0.728     0.672  86.39
       590      1205.32     106.1767  20.3520   0.0957  6.37    324.4165    504.4321     1.904     1.215 -57.53
       591     6491.409     56.04852  18.5239   0.0094  3.50   1308.7542    512.4567     1.632     1.506  62.31
       592     2904.121     69.23256  19.3972   0.0259  3.50    640.2544    518.4419     1.932     1.652 -71.08
       593      576.821      42.4526  21.1522   0.0799  3.50    441.3898    501.9273     1.133     1.093 -65.84
       594     3755.999     60.03705  19.1180   0.0174  3.77   1177.7865    512.9006     1.478     1.409 -50.33
       595     398.9035     49.15024  21.5526   0.1338  3.50    613.3676    506.1398     2.249     0.721  42.91
       596     1213.959     59.71685  20.3443   0.0534  3.70    451.8788    509.0833     1.458     1.448 -23.86
       597     588.9474       40.131  21.1296   0.0740  3.50   1567.7389    504.1129     1.084     1.038  64.74
       598     169.8794     26.99182  22.4794   0.1726  3.50    900.7302    499.0045     0.726     0.678 -82.76
       599     485.1754     70.05843  21.3400   0.1568  5.64   1384.6241    509.7856     1.983     0.659  61.40
       600     315.3957     49.15024  21.8076   0.1692  4.76   1543.2144    507.5606     1.318     0.653 -71.55
       601     349.1249     56.41498  21.6973   0.1755  5.45   1333.5258    504.2805     1.061     0.822  53.92
       602     186.2944     30.96174  22.3793   0.1805  4.07    987.9738    501.6870     0.739     0.662  -4.84
       603     821.0146     78.08254  20.7689   0.1033  5.68    306.6355    508.2869     1.551     1.014   6.22
       604     1432.396     52.90745  20.1646   0.0401  3.63   1517.7550    517.2729     1.442     1.218  64.96
       605     120.7446     32.76683  22.8501   0.2947  6.95   1518.6831    501.7110     0.550     0.345 -43.28
       606     152.6702       40.131  22.5954   0.2855  5.76      9.0267    503.4443     0.797     0.497  -1.46
       607      381.679     45.60099  21.6005   0.1297  6.36    323.9873    509.7282     1.055     0.977  35.55
       608     181.6543     35.02921  22.4067   0.2094  4.55    386.2407    507.9976     0.706     0.692 -89.15
       609     138.5155     32.17639  22.7010   0.2523  6.81    276.7023    506.6461     0.570     0.336 -47.65
       610     1546.657     82.61623  20.0813   0.0580  5.25    852.3768    519.8191     1.497     1.393  69.28
       611     446.2672     45.27087  21.4308   0.1102  5.54    165.1387    516.2280     1.324     0.826  41.18
       612     255.3772     45.08098  22.0368   0.1917  4.72    805.0140    510.8179     1.033     0.723  15.15
       613     579.0479     58.08938  21.1480   0.1089  4.49    580.8400    519.5636     1.275     1.085 -75.70
       614     186.7648     40.60595  22.3765   0.2361  5.08   1278.6561    511.9575     0.876     0.591 -60.95
       615     165.9689     32.17639  22.5047   0.2105  4.89    966.5349    512.0089     0.787     0.499  89.49
       616     498.9637     70.60364  21.3096   0.1537  6.58    828.0880    519.1966     1.263     0.763 -84.88
       617     8929.204     62.84547  18.1777   0.0076  3.50    998.3860    539.3273     1.651     1.615  69.52
       618     912.5276     87.13407  20.6542   0.1037  5.69    163.2619    528.1342     1.720     1.139  57.01
       619     216.4348     48.36379  22.2165   0.2427  6.04    679.2305    518.8010     0.902     0.597  55.40
       620     179.3183     33.34682  22.4207   0.2020  4.77    215.6618    522.0565     1.023     0.416  76.09
       621      251.667     33.91689  22.0527   0.1464  3.50    307.3713    522.3739     1.053     0.763 -64.50
       622     362.3065     59.71685  21.6571   0.1790  6.07    328.6938    523.6371     1.129     0.712  60.59
       623     2274.767      64.9459  19.6624   0.0310  3.50    402.7800    535.1192     1.922     1.484  27.66
       624     309.1888     52.54382  21.8292   0.1846  5.53   1056.3497    523.1108     0.987     0.751  16.11
       625     182.5745     41.53954  22.4012   0.2471  6.70    684.6183    522.8289     0.728     0.451  71.66
       626     1787.858     68.67647  19.9239   0.0417  3.50    932.5609    543.0318     2.628     1.225 -69.26
       627     36864.34     81.44763  16.6383   0.0024  3.50   1241.3867    571.7596     2.425     1.853 -59.84
       628     268.0588     52.54382  21.9842   0.2129  8.01   1077.8043    522.3922     0.759     0.449 -18.16
       629     690.5401     41.99855  20.9568   0.0661  3.58   1565.1273    530.8692     1.179     1.016  22.87
       630     198.5614     43.34644  22.3100   0.2371  6.84   1202.5991    525.8206     0.759     0.446  70.63
       631     12209.06     66.40554  17.8381   0.0059  3.50   1040.2180    558.0226     1.785     1.695 -10.19
       632     684.4485     89.09238  20.9664   0.1414  6.18    283.4784    535.3765     1.443     1.190  11.44
       633     202.7893     41.99855  22.2872   0.2249  6.60   1549.7992    530.6187     0.750     0.450  17.64
       634     252.4959     33.91689  22.0491   0.1459  4.32   1598.8651    536.3354     0.918     0.667  72.76
       635     182.3578     41.53954  22.4025   0.2474  5.80    369.9894    535.8195     0.941     0.470  35.72
       636     113.2906     32.17639  22.9193   0.3084  6.94    199.3394    534.3098     0.569     0.337 -43.59
       637      159.156     36.10729  22.5502   0.2464  5.73   1022.6365    537.8057     0.753     0.440  71.56
       638     99.71426     26.27191  23.0579   0.2861  5.25    256.6763    536.6807     0.567     0.339 -44.78
       639     32775.45     158.6015  16.7659   0.0053  3.50    781.1996    595.7696     4.290     3.971 -48.90
       640     770.4995      64.9459  20.8379   0.0915  4.78    849.6019    545.1549     1.334     1.160  16.89
       641     184.9868     45.08098  22.3869   0.2647  6.35   1216.1648    539.8527     0.737     0.565 -48.90
       642     288.2861     53.98364  21.9052   0.2034  6.56    335.0016    543.4798     0.813     0.698 -84.35
       643     9132.412     105.4519  18.1533   0.0125  3.50   1447.0073    570.6984     3.349     2.232  22.00
       644     8868.097     85.57996  18.1852   0.0105  3.50     43.9947    570.2426     2.640     1.876  43.60
       645     649.0099     65.82557  21.0242   0.1101  4.42    964.6169    552.5880     1.410     1.284  70.02
       646      169.966     43.34644  22.4789   0.2770  6.88    163.4291    543.2075     0.752     0.447  69.40
       647     157.3951     41.99855  22.5623   0.2898  7.62   1097.5366    540.5336     0.506     0.491  45.38
       648     178.5812       40.131  22.4252   0.2440  5.75    635.9469    540.5253     1.341     0.296 -17.90
       649     49533.21     70.05843  16.3175   0.0015  3.50    143.1402    579.6502     1.832     1.809 -48.78
       650     260.3451     51.06342  22.0159   0.2130  6.69    968.0092    543.6913     0.743     0.677  -5.36
       651     49573.41     73.79035  16.3167   0.0016  3.50    317.4402    581.1893     1.946     1.883  27.09
       652     1808.475     114.5166  19.9115   0.0688  5.35   1404.0591    558.6049     2.973     1.258  15.72
       653     881.2522     79.54216  20.6920   0.0980  5.17   1067.9631    558.1762     1.695     1.140  75.05
       654     196.8864     28.37691  22.3192   0.1565  3.50     70.0376    547.9819     0.775     0.764  -3.99
       655     2180.791     64.65002  19.7082   0.0322  4.02    137.8143    563.8499     1.510     1.430  79.46
       656       589.79     64.35278  21.1280   0.1185  5.26    804.0089    554.0810     1.213     1.047 -53.78
       657     119.2506     22.32683  22.8636   0.2033  4.18    811.4817    546.5479     0.503     0.494 -38.52
       658     1105.862     43.34644  20.4455   0.0426  3.50    777.2330    555.0070     1.210     1.115 -15.42
       659     188.6615     46.33929  22.3656   0.2667  6.73    263.6173    547.1992     1.002     0.391   5.16
       660     1088.657     84.22504  20.4626   0.0840  5.21    881.0110    593.0325     1.715     1.303 -84.99
       661     827.5971     53.62731  20.7602   0.0704  4.15    904.3146    561.9839     1.240     1.125  37.36
       662      748.745     52.54382  20.8689   0.0762  3.50    839.4007    561.6008     1.621     1.107 -46.86
       663     369.4877     41.53954  21.6358   0.1221  3.50   1502.7677    560.1599     1.142     1.052  80.15
       664     3249.573     83.76854  19.2752   0.0280  4.00   1000.1987    575.3261     1.993     1.842 -27.91
       665     702.9758     63.45269  20.9374   0.0980  4.80   1168.8605    563.3125     1.311     1.095 -62.87
       666     207.0455     28.37691  22.2646   0.1488  3.50   1593.8961    555.9279     0.834     0.639 -45.57
       667     766.0137     55.73114  20.8442   0.0790  4.44    630.5191    565.8840     1.188     1.101 -57.13
       668     830.2516     75.33317  20.7568   0.0985  5.30   1114.8995    566.3605     1.429     1.172  40.52
       669     214.1406     35.57233  22.2280   0.1804  4.40   1416.1584    561.5278     0.859     0.656 -50.22
       670     248.5606     44.22221  22.0662   0.1932  4.80    592.9903    561.5472     1.063     0.636  61.85
       671     176.6711       40.131  22.4369   0.2467  5.34    376.9734    559.7016     0.730     0.672 -12.94
       672     1596.004     109.3787  20.0472   0.0744  5.57    737.9565    577.1610     1.934     1.652  69.41
       673     557.2305     56.45103  21.1897   0.1100  6.69   1108.7618    569.5630     1.413     1.120 -24.54
       674     781.8456     72.74362  20.8220   0.1010  5.58    112.2422    569.2846     1.296     1.096  87.45
       675     835.5109     96.92558  20.7499   0.1260  7.50    708.3384    568.3838     1.323     1.041 -41.46
       676     549.2133     63.14981  21.2054   0.1249  5.31    209.8018    583.7803     1.117     1.058   8.57
       677     294.5988     57.42548  21.8817   0.2117  7.47   1528.2822    564.0470     0.729     0.665  86.77
       678     1325.303      77.5899  20.2490   0.0636  4.27    843.6274    577.8345     2.322     1.162  28.35
       679     1176.535     70.05843  20.3783   0.0647  3.76    677.9495    578.4068     1.758     1.613   0.53
       680     1007.015     99.84862  20.5472   0.1077  7.13   1351.3276    577.2133     1.331     1.217 -65.17
       681     646.3575     61.92348  21.0286   0.1040  4.84    547.7991    573.9763     1.209     1.097  -2.40
       682     186.0039     48.36379  22.3810   0.2824  7.89   1138.3329    568.9395     1.032     0.303 -40.11
       683     265.2155     50.68656  21.9958   0.2076  6.17   1177.2803    569.7196     0.883     0.642   4.71
       684      106.011     32.17639  22.9914   0.3296  6.89    228.6640    567.6684     0.578     0.333 -44.81
       685     3415.052     55.73114  19.2213   0.0177  3.50     74.2643    583.4860     1.457     1.407  24.16
       686       654.49      84.9052  21.0150   0.1409  6.41    481.0984    577.0257     1.322     1.097  -6.84
       687     864.9104      78.5721  20.7124   0.0987  5.55   1099.4866    583.0424     1.393     1.198 -77.57
       688     471.7577     43.34644  21.3705   0.0998  3.50    694.9531    577.9242     1.334     0.972  52.93
       689     746.8496     90.37435  20.8717   0.1314  6.90   1555.5245    578.5744     1.357     1.067  -4.53
       690     382.5783     53.62731  21.5980   0.1522  5.31   1211.2726    574.0483     1.152     0.757  -0.07
       691     1191.754     71.94859  20.3643   0.0656  4.94   1171.4724    584.4354     1.397     1.250  -9.89
       692     271.3254     54.33764  21.9711   0.2175  6.73    869.8849    576.8837     0.833     0.662 -47.46
       693     121.7053     35.02921  22.8415   0.3126  6.89    394.4643    574.5051     0.506     0.493 -47.68
       694      535.806     56.75381  21.2323   0.1150  4.54   1183.7124    582.6675     1.163     1.125 -51.12
       695     425.5541     46.33929  21.4824   0.1183  4.50   1485.3590    581.5748     1.030     0.876  41.07
       696       281.48     57.42548  21.9312   0.2216  7.90    643.8138    579.1122     0.743     0.564 -42.01
       697     83.95027     16.38342  23.2447   0.2119  3.50    753.0214    574.0000     0.834     0.289   0.00
       698     1030.074     58.08938  20.5226   0.0612  4.69   1137.9231    587.6285     1.135     1.130 -37.31
       699     1195.259     119.4337  20.3611   0.1085  6.98   1356.2732    591.8176     1.789     1.364 -30.83
       700     120.2407     33.34682  22.8547   0.3012  7.09    289.7131    579.6536     0.562     0.340 -48.13
       701     342104.2     82.15079  14.2194   0.0003  3.50   1462.9132    647.4391     2.196     2.061 -51.26
       702     52829.08     74.04972  16.2476   0.0015  3.50    535.1590    638.8257     1.945     1.910  51.52
       703     5770.531     58.74578  18.6517   0.0111  3.50    584.9026    604.5508     1.590     1.493 -57.44
       704      169.856     26.99182  22.4796   0.1726  3.50   1083.9978    586.2584     0.742     0.671   2.75
       705     708.6525     61.92348  20.9287   0.0949  4.78    498.2233    992.1393     1.260     1.095  -2.73
       706     642.8663     41.53954  21.0345   0.0702  3.50    709.3314   1598.6803     1.492     0.953   0.46
       707     5240.248     80.73835  18.7564   0.0167  3.69    653.1365   1596.5074     2.250     2.150 -14.57
       708     1337.297      56.0741  20.2392   0.0455  4.28     16.9833   1599.0289     1.935     1.019   1.87
       709     166.2872     36.63443  22.5026   0.2393  5.78   1473.5314   1597.9791     0.778     0.498 -87.28
       710     137.0572     31.57491  22.7125   0.2502  5.84   1177.5103   1598.5118     0.503     0.496 -44.86
       711      3172.94     69.78423  19.3011   0.0239  3.60    372.3465   1593.5031     1.951     1.600  52.75
       712     243.0163      38.1722  22.0907   0.1706  4.45   1555.1002   1591.8859     0.831     0.681  39.32
       713     146.2229     37.66658  22.6422   0.2798  6.33     25.2468   1591.2596     0.846     0.351  70.97
       714     6664.771     61.61309  18.4953   0.0100  3.50   1107.2765   1584.0128     1.738     1.504 -59.92
       715     1690.168     75.33317  19.9850   0.0484  3.86    251.5271    915.9427     2.421     1.301  55.33
       716     273.1903      55.0388  21.9636   0.2188  7.91   1587.5160    916.9585     0.816     0.500 -89.44
       717     468.8706     42.51774  21.3771   0.0985  4.73   1111.6158    916.3821     1.248     0.886 -61.80
       718      249.622     51.43751  22.0616   0.2238  6.19     40.9976    917.0341     0.787     0.784  70.40
       719     1079.181     59.07124  20.4720   0.0594  3.62   1117.8704    913.4476     1.702     1.296  61.80
       720     180.6639     47.15952  22.4126   0.2835  8.66    411.4647    916.5247     0.502     0.496 -48.33
       721     548.9366     51.43751  21.2060   0.1018  4.38    124.3865    914.5247     1.173     0.980 -74.59
       722     2565.907     61.30112  19.5317   0.0259  3.78    999.8801    911.3154     1.658     1.351  39.05
       723     4279.381     54.68934  18.9763   0.0139  3.50    837.0142    911.7786     1.467     1.402  50.60
       724      2678844     146.9297  11.9849   0.0001  3.50    182.0361    880.5353     3.984     3.639 -37.95
       725      424.865     68.39673  21.4842   0.1748  5.88     88.0166    908.1674     1.247     0.875  83.16
       726     136.0148     32.17639  22.7208   0.2569  6.80   1454.3621    908.7031     0.573     0.334  42.05
       727     44734.82     262.1346  16.4282   0.0064  3.76    222.5347    877.5880     9.429     4.271 -88.50
       728         2444     68.67647  19.5845   0.0305  3.69   1313.7762    903.4959     1.965     1.465  81.81
       729     32605.71     69.23256  16.7715   0.0023  3.50    301.0819    899.4506     1.803     1.775 -85.82
       730     119.8072     32.17639  22.8586   0.2917  6.68   1551.6436    904.2801     0.562     0.339  41.04
       731     306.3059     52.54382  21.8394   0.1863  5.50   1257.0669    903.2830     1.018     0.724  69.64
       732     753.7225     60.03705  20.8618   0.0865  5.12    733.7010    903.0952     1.086     1.037 -38.91
       733     317.2935     55.38605  21.8011   0.1896  5.91   1273.8263    914.0015     1.305     0.553 -26.14
       734     564.2859      53.2686  21.1760   0.1025  4.70    120.2991    902.6914     1.121     0.960 -63.83
       735     121.3416     21.45092  22.8448   0.1920  3.50   1077.5374    902.4759     0.500     0.498  66.63
       736     178.7978     41.07539  22.4239   0.2495  7.34    141.5244    902.5349     0.502     0.496 -42.16
       737     1213.225     76.09285  20.3449   0.0681  4.71    657.7141    907.1697     1.558     1.401  55.91
       738     198.4959     46.33929  22.3104   0.2535  8.42   1353.9932    901.5013     0.783     0.319  32.62
       739     180.7161     39.65038  22.4123   0.2383  6.12    633.4104    900.1895     0.751     0.438  68.50
       740     7928.941     103.9872  18.3067   0.0142  4.04    537.0415    895.1193     2.566     2.151   8.24
       741     311.3789     44.65366  21.8216   0.1557  4.51    449.6380    899.2250     0.927     0.837 -22.25
       742      430.503     36.10729  21.4698   0.0911  3.50    378.3634    898.6234     1.142     0.813 -49.74
       743     174.4358     37.15409  22.4507   0.2313  5.24    942.4963    912.9297     0.775     0.500  89.37
       744     1384.072     69.23256  20.2019   0.0543  4.47    985.8939    896.1375     1.528     1.305 -62.63
       745      261.596     52.90745  22.0107   0.2196  6.87    972.9830    898.3257     0.751     0.656   0.62
       746      529.259     67.55054  21.2456   0.1386  5.43    728.1914    897.5568     1.390     0.913  10.18
       747     89.69003     26.27191  23.1729   0.3181  5.45    127.6653    898.6652     0.579     0.333 -45.01
       748     583125.8     82.84798  13.6404   0.0002  3.50   1591.1388    879.3842     2.240     2.085 -62.90
       749     2084.489     60.35555  19.7573   0.0314  3.67   1424.8202    892.9410     1.606     1.398 -19.48
       750     226.4827     39.16385  22.1672   0.1878  4.26   1241.9054    895.3829     0.986     0.632 -51.55
       751     838.6772     87.79169  20.7458   0.1137  6.40   1570.0525    894.0583     1.355     1.141  87.54
       752     356.6653     41.07539  21.6741   0.1251  3.60   1272.6573    891.5984     1.167     0.930 -29.78
       753     375.5839      55.0388  21.6180   0.1591  5.54   1212.7744    891.0875     1.020     0.826  31.35
       754       4504.8     87.57304  18.9206   0.0211  3.72    324.2594    887.6019     2.490     1.836  13.65
       755     4085.483     84.67909  19.0267   0.0225  3.77   1303.2346    884.6998     2.476     1.694  80.02
       756     562.0811     69.50894  21.1803   0.1343  7.67   1220.2166    890.0221     0.923     0.744  -0.56
       757     386.2957     51.06342  21.5875   0.1436  5.19    989.0393    888.2559     1.110     0.746 -89.73
       758     1450.655     70.87467  20.1509   0.0531  4.51    679.5131    887.6772     1.609     1.284 -27.62
       759     861.3448     103.0612  20.7168   0.1299  7.00     12.7328    886.5081     1.712     1.044 -45.44
       760     4325.618     56.75381  18.9647   0.0142  3.50   1498.8490    884.7589     1.557     1.393 -44.45
       761     2832.962     93.29713  19.4242   0.0358  4.45    337.2748    883.8668     2.437     1.510  25.29
       762     486.9929     66.69363  21.3360   0.1487  7.66   1564.5284    885.8561     1.101     0.569  25.28
       763     267.4442     47.15952  21.9867   0.1915  7.40   1101.5696    885.7748     0.720     0.463  71.36
       764     6998.953     121.8178  18.4422   0.0189  4.37   1175.6498    876.8625     2.821     2.274 -53.52
       765     320.2534     47.96572  21.7910   0.1627  8.81    522.4819    883.4890     0.500     0.499  53.24
       766      528.806      48.7586  21.2465   0.1001  3.73    443.8426    882.1581     1.321     1.087 -28.80
       767     347.2931      38.1722  21.7030   0.1194  3.50    758.7241    909.1570     1.235     0.823 -64.02
       768     145.7355     40.60595  22.6459   0.3026  6.89   1447.9923    882.2307     0.678     0.421   0.36
       769     380.8281     60.03705  21.6030   0.1712  5.61    249.9708    882.0029     1.320     0.703  16.28
       770      1526964     120.8698  12.5952   0.0001  3.50   1223.1328    858.1948     3.680     2.679 -41.60
       771     2763.302     55.38605  19.4512   0.0218  3.50    959.5536    876.6840     1.484     1.373  68.03
       772     145.3362     39.65038  22.6488   0.2963  6.37   1460.8025    879.6145     0.777     0.446  17.89
       773     152.7825     36.10729  22.5946   0.2567  5.69   1376.8099    879.3910     0.767     0.442 -19.34
       774     1360.897     59.71685  20.2202   0.0477  4.28    540.1467    875.3858     1.312     1.244 -64.62
       775     241.2505     47.56433  22.0986   0.2141  7.02   1133.9697    877.5315     0.794     0.499  -0.81
       776     14508.86     89.30732  17.6507   0.0067  3.50   1101.8793    868.5463     2.561     2.122 -40.48
       777     301.3401      58.4185  21.8571   0.2105  6.77   1406.6368    874.0376     0.897     0.692  26.20
       778     5741.752     89.94906  18.6572   0.0170  3.65    937.8522    866.5641     2.883     1.740  47.58
       779     1424.542     49.53879  20.1706   0.0378  3.59    642.2037    868.4348     1.312     1.198  49.63
       780     422.8742     53.62731  21.4893   0.1377  4.58   1434.7351    868.7237     1.202     0.940  11.67
       781     91.36304     26.99182  23.1529   0.3208  5.48    912.3117    867.6847     0.560     0.342  45.20
       782      875.849      48.7586  20.6987   0.0605  3.50    453.2321    865.7056     1.330     1.236 -18.74
       783     762.9611     45.08098  20.8485   0.0642  3.50   1477.9049    864.0317     1.270     1.088  64.89
       784     448.0876      55.0388  21.4264   0.1334  4.83    814.8388    865.5558     1.181     0.900  25.97
       785     1075.968     81.91707  20.4753   0.0827  5.55    353.6713    863.2389     1.460     1.253  80.05
       786     906.2006     56.84971  20.6617   0.0681  6.03   1175.9421    864.8426     1.517     1.283 -12.59
       787     883.4913     72.21458  20.6893   0.0888  4.74    772.0474    863.0548     1.665     1.186  14.80
       788     1085.018     58.08938  20.4662   0.0581  3.50    266.6910    861.1801     1.862     1.240  33.13
       789     4261.523      58.4185  18.9809   0.0149  3.54   1155.9261    858.6987     1.534     1.471 -47.32
       790       183.18     46.75121  22.3976   0.2772  6.56   1013.7692    861.7991     0.756     0.547  50.06
       791     544.3953     65.82557  21.2150   0.1313  4.71    634.9821    861.1895     1.326     1.177   0.41
       792     238.2891     57.09063  22.1120   0.2602  6.70    311.5067    862.0226     1.498     0.412  25.36
       793       962.59     51.06342  20.5962   0.0576  3.90   1552.9552    859.6783     1.282     1.094  50.38
       794     3862.923     76.59512  19.0875   0.0215  3.90   1338.1414    857.4861     1.947     1.626 -45.31
       795     704.7396     57.59817  20.9347   0.0888  5.14   1346.2467    854.2545     1.513     1.124 -12.89
       796     106.5128       40.131  22.9863   0.4092  8.24    112.6918    861.6525     0.572     0.336 -46.80
       797     366.2555     65.82557  21.6453   0.1952  6.64   1040.9166    880.1906     1.093     0.755 -43.12
       798      229.539     51.43751  22.1526   0.2434  5.78     46.5830    881.8959     1.125     0.568  28.32
       799     371.9185     71.41365  21.6287   0.2085  6.02    820.0308    860.3287     1.942     0.608   1.07
       800     173.4037     52.17766  22.4571   0.3268  7.93   1039.2034    858.8159     0.998     0.344  44.80
       801      1249.94     112.1482  20.3126   0.0974  6.23    572.6776    857.8376     1.976     1.366 -18.72
       802     1793.509     74.04972  19.9205   0.0448  4.04    543.5786    854.7204     1.965     1.402 -82.75
       803     850.3508     80.73835  20.7308   0.1031  5.28   1428.6367    854.8810     1.801     1.079 -49.78
       804     586.9209     72.74362  21.1333   0.1346  5.52    685.4162    855.1677     1.540     0.936  37.09
       805     1520.218     68.11584  20.1000   0.0487  3.55    670.3702    878.5819     1.842     1.689 -25.53
       806     231.4647     45.92369  22.1436   0.2155  5.02    457.7856    911.4485     0.952     0.717  89.91
       807     527.3143     41.53954  21.2496   0.0856  3.50   1301.9430    850.0281     1.150     1.050  50.51
       808     221.0162     47.96572  22.1937   0.2357  7.05    915.4529    850.5235     0.949     0.414  19.13
       809     416.7213     60.67238  21.5052   0.1581  4.70   1458.3064    848.2953     1.311     1.040 -20.65
       810     612.9979     77.34241  21.0861   0.1370  6.29   1562.2761    846.7119     1.244     1.014  17.12
       811     2250.432     100.2319  19.6741   0.0484  3.92    359.0427    845.6400     3.056     1.777   2.97
       812     6219.113     75.84047  18.5705   0.0132  3.57   1104.7021    842.4846     2.164     1.753  23.33
       813     2890.706     54.33764  19.4023   0.0204  3.50   1062.4460    843.9140     1.496     1.358 -49.30
       814     159.1179       40.131  22.5505   0.2739  8.29    833.3272    846.6546     0.580     0.332  45.75
       815     260.1862     49.53879  22.0166   0.2068  9.05    520.4957    845.5060     0.506     0.494  44.96
       816     115.4819     35.02921  22.8985   0.3294  7.42    720.3292    844.6862     0.567     0.339  44.24
       817     1097.041     65.82557  20.4542   0.0652  4.78      3.6581    907.8270     1.543     1.320 -21.68
       818     305.4529     53.62731  21.8424   0.1907  5.42   1496.4961    841.6822     1.014     0.791 -52.67
       819     917.1714     93.09141  20.6487   0.1102  4.96    898.1757    838.2547     2.050     1.399 -39.02
       820      229.193     35.21832  22.1543   0.1669  7.25    891.5522    841.3674     1.018     0.623  -5.99
       821     203.0088     47.15952  22.2860   0.2523  7.43    594.8603    841.6547     0.775     0.435  17.33
       822     503.7178     59.07124  21.2993   0.1274  5.00    545.8587    839.6061     1.251     0.973 -34.83
       823     1265.507     75.07824  20.2991   0.0644  4.70    990.3867    836.9376     1.562     1.330 -27.91
       824     7230.751     58.74578  18.4068   0.0088  3.50    297.0847    835.5149     1.560     1.527  58.45
       825     242.5645     32.76683  22.0927   0.1467  3.50    493.1194    837.3870     1.014     0.717  73.04
       826     1098.188     45.50428  20.4531   0.0450  3.53   1519.0452    835.6984     1.227     1.149 -66.49
       827     290.1147     47.15952  21.8984   0.1765  7.47   1261.5596    836.7437     0.719     0.463  71.03
       828     1903.858     50.30688  19.8557   0.0287  3.50    817.6740    834.6063     1.407     1.249 -11.35
       829     734.8521     68.67017  20.8893   0.1015  7.66   1229.2965    831.6965     1.572     1.303  -9.66
       830     311.8206     39.65038  21.8200   0.1381  3.89   1057.5763    831.0356     1.073     0.821 -46.51
       831     522.0901     58.08938  21.2604   0.1208  4.99    403.0874    830.7077     1.094     1.005  22.13
       832     767.4531     91.84737  20.8422   0.1300  6.36    258.6620    907.9025     1.624     1.076  28.29
       833     379.1982     47.53205  21.6076   0.1361  7.86   1202.6389    832.9265     1.228     0.964 -85.06
       834     33598.61     70.87467  16.7390   0.0023  3.50    652.7433    822.0271     1.871     1.813 -85.45
       835     688.1796     59.07124  20.9605   0.0932  4.34   1573.9297    909.2726     1.264     1.209  28.21
       836     828.3679     92.05588  20.7592   0.1207  7.05    666.0967    825.7577     1.451     0.981  44.01
       837     444.8462     61.61309  21.4343   0.1504  5.61    597.2436    825.9074     1.183     0.836 -65.73
       838     404.5595     50.08666  21.5373   0.1345  7.87   1237.1324    825.0111     1.354     0.944  45.45
       839     172.9313     57.09063  22.4601   0.3585  7.59   1379.9363    825.0043     0.877     0.527 -44.31
       840     518.0124     73.79035  21.2689   0.1547  6.55    673.1794    823.9092     1.061     0.989 -75.24
       841     100.4479     32.17639  23.0499   0.3479  6.51    271.3154    823.3334     0.569     0.337 -45.86
       842     597.6025     45.50428  21.1138   0.0827  3.74    329.1191    821.0120     1.194     1.015 -56.45
       843     1026.277     45.50428  20.5266   0.0482  3.50   1397.0670    818.8151     1.239     1.130 -70.71
       844     662.7881     49.53879  21.0013   0.0812  3.50    777.8240    818.1025     1.552     1.056 -64.91
       845      1108.77     55.73114  20.4427   0.0546  4.07    701.2360    817.8634     1.289     1.209  54.02
       846     366.4624      56.0741  21.6447   0.1662  5.27   1574.2266    818.6719     1.063     0.884  61.99
       847     312.0393     52.17766  21.8193   0.1816  5.28    745.5088    818.2026     0.997     0.800 -33.31
       848     1833.057     74.56575  19.8968   0.0442  3.74    877.0791    814.8843     1.938     1.698  73.01
       849     315.5129     55.73114  21.8072   0.1918  5.87    598.4251    816.8564     1.000     0.732 -15.56
       850     769.6737     44.22221  20.8390   0.0624  3.50    431.9686    816.1001     1.237     1.068 -33.35
       851     419.1322     66.98049  21.4989   0.1736  6.85   1580.1262    814.4893     0.985     0.815  51.12
       852     323.5073     63.75413  21.7801   0.2140  6.94   1213.2855    814.5162     1.055     0.649  37.56
       853     212.7117     51.43751  22.2353   0.2626  6.06    455.4482    810.6053     1.109     0.570  45.29
       854     1216.624     45.92369  20.3419   0.0410  3.50   1543.2242    808.9391     1.195     1.144  78.07
       855     573.1756     47.15952  21.1591   0.0894  4.02    842.6214    808.7559     1.281     0.899 -64.32
       856     438.7583      64.9459  21.4492   0.1608  6.47    649.9277    809.7131     1.027     0.809 -53.84
       857     30662.76     70.05843  16.8383   0.0025  3.50   1377.2712    802.1627     1.875     1.761 -71.54
       858      257.131     45.50428  22.0294   0.1922  5.46    788.8911    808.8396     1.062     0.524  54.06
       859     314.0627      56.0741  21.8122   0.1939  5.75    737.6411    808.0427     1.037     0.748 -18.59
       860      90474.9     85.13071  15.6635   0.0010  3.50    694.0696    797.5862     2.610     1.888 -87.69
       861     14387.54     68.39673  17.6598   0.0052  3.50     39.2803    799.6788     1.931     1.618 -27.76
       862     295.2719     55.73114  21.8792   0.2050  5.67    111.1313    802.6581     1.036     0.744 -78.29
       863     605.7739     69.50894  21.0990   0.1246  5.75   1595.8204    800.7664     1.393     1.023 -17.42
       864     176.1878     41.99855  22.4398   0.2589  7.58   1464.4677    801.4963     0.503     0.496  49.42
       865     157.9679       40.131  22.5584   0.2759  5.61    813.0287    799.8463     0.925     0.461  36.49
       866     318.1029     68.39673  21.7984   0.2335  6.84    569.8359    799.5258     1.318     0.627 -40.48
       867     760.5649     81.44763  20.8519   0.1163  5.90    177.0495    797.9231     1.467     1.075  81.71
       868     425.0258     67.55054  21.4837   0.1726  7.09   1484.0905    797.7309     1.014     0.740 -72.46
       869     1409.084     71.68162  20.1824   0.0552  4.17    294.1157    793.4504     1.623     1.485 -76.30
       870     285.7869     39.16385  21.9147   0.1488  3.69   1124.1321    794.5059     1.326     0.690 -41.02
       871     191.4716     47.96572  22.3495   0.2721  7.44    939.6212    794.7894     0.762     0.449  72.69
       872     117.4003     25.53171  22.8806   0.2362  4.02     80.8208    795.4178     0.731     0.449 -20.63
       873     100.4418     21.45092  23.0500   0.2319  4.38    441.3350    797.2988     0.563     0.340 -43.11
       874     564.7177     45.08098  21.1752   0.0867  3.50    407.3934    788.4786     1.299     1.051  28.69
       875      102.849     32.17639  23.0243   0.3398  6.86   1316.6737    788.3285     0.572     0.336  45.10
       876     143.9331      38.1722  22.6594   0.2880  7.77   1121.6696    787.6827     0.569     0.338 -44.37
       877     228.0133     44.65366  22.1599   0.2127  5.89   1490.4324    785.7142     0.970     0.481  81.84
       878     624.6523     46.75121  21.0657   0.0813  4.14   1347.6135    785.1977     1.175     0.929  54.48
       879     300.2607     48.36379  21.8610   0.1749  6.66   1598.9232    784.6610     0.922     0.681 -70.89
       880     369.7284     66.11619  21.6351   0.1942  5.49    398.1183    784.2283     1.548     0.792 -30.82
       881     258.1249     51.06342  22.0252   0.2148  6.12   1535.4587    784.0778     0.813     0.699  -3.74
       882     15484.47     122.6022  17.5800   0.0086  3.50   1425.9944    773.2239     4.139     2.464 -88.25
       883     304.1383     41.52742  21.8471   0.1483  3.50    472.5957    781.2095     1.057     0.860  83.58
       884     533.0425     58.74578  21.2379   0.1197  4.57    475.3151    777.1037     1.524     0.913 -20.66
       885     447.7686     45.92369  21.4271   0.1114  4.38   1265.3906    780.3560     1.022     0.905 -31.66
       886     206.6709     41.07539  22.2666   0.2158  7.46    367.4818    779.9715     0.793     0.315  57.77
       887     147.3825     36.10729  22.6337   0.2661  4.63    911.3163    779.0192     0.720     0.674  83.56
       888     361.5732     57.42548  21.6593   0.1725  6.02   1366.5007    777.8870     1.051     0.708 -40.56
       889     186.3486     41.99855  22.3790   0.2448  7.59    529.4656    777.4537     0.503     0.494  41.88
       890     174.4598     47.96572  22.4505   0.2986  6.45   1101.1268    769.8513     0.761     0.568 -42.18
       891     333.9715     64.05415  21.7455   0.2083  6.37    349.3054    768.6579     1.125     0.757  64.82
       892     1996.891     64.65002  19.8039   0.0352  3.50    138.2383    766.9700     1.772     1.620 -23.64
       893     6858.732     62.53965  18.4642   0.0099  3.50    390.1516    765.5482     1.645     1.579  64.74
       894     964.3383     65.53366  20.5942   0.0738  4.27    928.8411    766.4824     1.463     1.330  32.49
       895     526.6049     83.76854  21.2511   0.1728  6.39    469.0482    765.0766     1.934     0.746  58.90
       896     325.5725     47.15952  21.7732   0.1573  4.38   1010.6976    764.0007     1.205     0.809  52.40
       897      309.784     49.53879  21.8271   0.1737  7.83    418.1384    765.3877     0.756     0.445  18.97
       898     193.0686     39.16385  22.3405   0.2203  8.08    906.7054    764.6562     0.564     0.339 -47.51
       899     740.1469     45.50428  20.8815   0.0668  3.50    565.8066    763.2866     1.253     1.068 -12.82
       900     362.3648     57.75838  21.6569   0.1731  6.66    292.8976    763.9843     0.782     0.772 -65.42
       901     394.9307     64.05415  21.5635   0.1761  6.25   1570.4341    762.4066     0.979     0.880  35.46
       902     604.7048      77.5899  21.1009   0.1393  7.22    412.5504    761.1911     1.175     0.822 -63.11
       903     248.1604     44.65366  22.0679   0.1954  8.10    353.5137    762.4850     0.505     0.495  44.90
       904     353.9027     63.14981  21.6826   0.1938  6.52    668.4006    759.4136     0.966     0.815 -72.40
       905     218.9277     32.76683  22.2040   0.1625  3.50     27.1107    759.9965     0.923     0.744   2.79
       906     1461.257     70.33156  20.1430   0.0523  3.71   1339.8724    756.4849     2.369     1.244 -42.43
       907     254.0439     41.07539  22.0425   0.1756  5.30    540.9403    758.4819     0.751     0.705 -88.91
       908     84.06335     21.45092  23.2433   0.2771  4.78    520.6580    759.6898     0.571     0.337 -43.51
       909     417.1157     54.78977  21.5041   0.1427  3.50     98.3007    758.5117     1.319     1.070   1.82
       910     600.1991     50.30688  21.1090   0.0910  3.50    104.2350    756.9821     1.450     1.218 -68.30
       911     2634.797     95.73138  19.5029   0.0395  3.96    194.1587    753.5686     2.368     2.068  86.06
       912     160.9312     30.33619  22.5382   0.2047  4.33   1061.9934    756.5421     0.788     0.498  -0.62
       913     515.3664     73.26886  21.2745   0.1544  5.96    163.3778    754.1966     1.434     0.870 -88.35
       914     1089.527     86.69288  20.4617   0.0864  6.07    431.7474    752.1942     1.568     1.076 -88.99
       915     194.3249     41.53954  22.3335   0.2321  5.53    473.3055    754.1911     0.726     0.625 -25.25
       916      153.189     35.02921  22.5917   0.2483  6.57   1111.0217    753.5021     0.814     0.307  31.58
       917     808.1737     66.69363  20.7860   0.0896  4.93   1078.6631    751.5607     1.356     1.109 -52.96
       918      200.681      38.6712  22.2985   0.2093  5.04   1258.8792    752.3327     0.861     0.589  30.38
       919     244.7118     47.96572  22.0831   0.2129  6.36    349.0467    752.2974     0.741     0.659   6.34
       920     157.9281     43.78652  22.5586   0.3011  7.75    148.4910    751.4926     0.512     0.488 -45.03
       921     311.2277     51.43751  21.8221   0.1795  4.93   1142.2968    750.0260     1.193     0.751   1.53
       922     140.3269     35.57233  22.6869   0.2753  7.50   1028.3197    750.7155     0.549     0.345  42.81
       923      1981705     104.5389  12.3122   0.0001  3.50    403.1561    723.1793     2.927     2.526 -35.92
       924     237.5698     47.15952  22.1153   0.2156  8.73    373.4757    748.5027     0.508     0.491  45.98
       925     276.7612     41.07539  21.9495   0.1612  4.16   1108.7162    746.6974     0.959     0.835  10.33
       926     380.7533     68.95508  21.6032   0.1967  6.44   1011.7009    745.3368     1.025     0.927  35.03
       927     350318.5     92.26392  14.1936   0.0003  3.50    846.7585    725.7482     2.618     2.184 -61.10
       928     267.5592      58.4185  21.9862   0.2371  6.93    483.1085    744.8356     0.979     0.591  15.04
       929     491.8048     89.30732  21.3253   0.1972  6.45     42.9781    743.5436     2.009     0.791 -48.96
       930     400.9987     69.23256  21.5469   0.1875  6.15   1426.6232    743.5344     1.083     0.960  80.31
       931     166.0039     41.07539  22.5045   0.2687  7.29   1054.4769    744.4493     0.505     0.491  40.78
       932     154.1208       40.131  22.5851   0.2828  8.14    902.6353    744.6851     0.582     0.330 -43.02
       933      1289.05     118.4666  20.2791   0.0998  6.93    368.3530    764.3563     2.105     1.164  41.10
       934     343.0661     51.43751  21.7163   0.1628  4.65    917.9772    740.4368     1.090     0.942   7.65
       935     489.6158     68.11584  21.3301   0.1511  5.99    120.8514    740.0433     1.217     0.875  -2.38
       936     610.0316     56.41498  21.0914   0.1004  4.13   1271.3163    738.4791     1.443     1.072  43.18
       937     2955.145      53.2686  19.3783   0.0196  3.50   1156.6827    737.0798     1.465     1.344 -64.44
       938     3100.269      56.0741  19.3263   0.0196  3.54    648.2227    735.1949     1.501     1.404  39.17
       939     178.8951     39.65038  22.4233   0.2407  5.46    497.0123    754.9689     0.899     0.527 -43.37
       940     185.3208     46.33929  22.3850   0.2716  5.22   1563.1517    737.2386     1.033     0.627   7.57
       941     319.2856     56.75381  21.7943   0.1930  5.64     45.9744    749.5461     1.085     0.780 -89.23
       942     245.3861     41.07539  22.0802   0.1818  4.32     95.8102    732.6810     1.156     0.657 -53.08
       943      1166.63     82.38384  20.3874   0.0767  4.54    751.7039    729.1928     2.020     1.337  75.59
       944     5583.198     58.08938  18.6876   0.0113  3.50   1176.7561    726.5352     1.553     1.491 -36.07
       945      357.472     61.30112  21.6717   0.1862  6.99    449.8508    729.4692     1.126     0.573 -63.26
       946     516.8196     59.39492  21.2714   0.1248  5.64    364.2970    745.4423     1.045     0.898 -40.96
       947     461.2667     37.66658  21.3949   0.0887  3.50   1542.4554    727.8002     1.151     0.879 -11.58
       948     192.0466     45.08098  22.3463   0.2549  7.23    888.6120    725.8062     0.759     0.444  70.98
       949     101.3521     21.45092  23.0402   0.2298  4.67   1599.5280    724.9980     0.768     0.323  56.86
       950      394.291     63.45269  21.5652   0.1748  6.56    643.5433    724.4142     1.216     0.633  49.08
       951     2211.345     61.30112  19.6931   0.0301  3.65   1393.5308    720.4437     1.696     1.352  10.65
       952     476.8257     41.07539  21.3589   0.0936  3.50    260.7399    721.4250     1.157     0.999  -0.92
       953     700.9742     88.66094  20.9405   0.1374  7.20   1000.6024    719.8713     1.515     0.819 -56.92
       954     147.1581     30.33619  22.6353   0.2239  4.84    662.5953    725.8420     0.760     0.443  69.98
       955     6957.158     60.98756  18.4487   0.0095  3.50    806.8161    714.8725     1.652     1.543   7.92
       956     165.7707     36.63443  22.5060   0.2400  4.62    453.5145    718.1157     1.244     0.441 -20.00
       957     7693.437     62.84547  18.3395   0.0089  3.50    554.6478    741.8409     1.665     1.595 -22.34
       958     165.6572     32.17639  22.5068   0.2109  7.01   1409.3293    712.6852     0.567     0.338  44.29
       959     9092.479     93.70724  18.1581   0.0112  3.50   1337.5911    703.1992     2.752     2.163 -86.91
       960     7023.047     59.71685  18.4385   0.0092  3.50   1162.3616    708.0180     1.570     1.538  30.94
       961     183.8918     42.90185  22.3934   0.2534  8.84    351.6827    711.3360     0.571     0.336  45.87
       962      789.762     57.75838  20.8110   0.0794  3.50    193.7538    709.4088     1.754     1.306  44.59
       963     336.2976     59.71685  21.7380   0.1928  6.77    872.9740    745.0206     0.949     0.678 -88.42
       964     244.8272     49.92431  22.0826   0.2215  6.58    564.3110    708.0691     0.743     0.664 -85.04
       965     1159.962     70.60364  20.3937   0.0661  5.08    536.9973    706.7319     1.283     1.230 -75.75
       966     705.4684     89.52174  20.9336   0.1378  6.44    603.2543    705.1212     1.510     1.060 -72.96
       967     12800.56     65.24044  17.7867   0.0055  3.50    950.9893    701.9432     1.747     1.683 -52.84
       968     323.3063     59.07124  21.7807   0.1984  6.45    610.7724    704.9053     1.073     0.653 -67.96
       969     1371.888     117.1647  20.2115   0.0927  6.62    444.4482    746.9888     2.011     1.299  51.29
       970     169.2452     35.02921  22.4835   0.2248  7.39   1077.3076    705.6736     0.563     0.341  45.98
       971     172.2402     35.57233  22.4644   0.2243  5.51    443.2307    704.6102     0.731     0.456 -17.55
       972     94.40508     16.38342  23.1173   0.1885  3.50    679.9565    704.0000     0.842     0.289   0.00
       973     305.1491     47.56433  21.8435   0.1693  5.38    632.0737    702.3890     1.017     0.649 -61.90
       974     350.0559     36.10729  21.6944   0.1120  3.50    649.6455    700.4686     1.017     0.928  41.83
       975     3452.083     91.21899  19.2096   0.0287  4.04    581.0176    697.9648     2.686     1.540   8.35
       976     262.7236     49.53879  22.0060   0.2048  6.47    435.7314    700.0186     0.740     0.653 -89.59
       977     186.7628     44.65366  22.3766   0.2597  7.94   1253.4772    699.4939     0.501     0.498  49.23
       978     595.2364     82.61623  21.1181   0.1507  7.00    484.3752    697.8560     1.447     0.802 -53.64
       979     518.9821     64.65002  21.2669   0.1353  5.92   1198.9125    696.2247     1.082     0.916  32.40
       980     307.6367     59.71685  21.8347   0.2108  6.93    346.4524    695.4342     0.884     0.680  74.19
       981     566.8539     41.07539  21.1711   0.0787  3.50    275.2329    695.2608     1.152     0.996 -47.44
       982     3432.554     62.29696  19.2157   0.0197  3.50   1212.3378    690.7079     1.953     1.564  26.71
       983     2340.352     47.28526  19.6316   0.0219  3.77   1212.3179    685.6291     1.513     1.251 -22.52
       984     15627.07     226.0843  17.5701   0.0157  4.69    470.9409    682.2505     4.398     4.387 -13.94
       985     204.3822     47.96572  22.2787   0.2549  6.22    427.7073    692.9930     0.720     0.682 -84.84
       986      1748.21     57.09063  19.9483   0.0355  3.50    314.4962    690.8992     1.575     1.392 -87.43
       987     133.8456     35.02921  22.7383   0.2842  7.40   1411.7025    691.3702     0.576     0.332  48.13
       988     484.3334     63.45269  21.3419   0.1423  5.08    666.9633    688.6526     1.436     0.878  65.50
       989     447.9955     64.05415  21.4266   0.1553  8.26   1289.0240    688.3669     1.091     0.461 -64.09
       990     10552.09     68.95508  17.9964   0.0071  3.50    642.7202    684.5234     1.885     1.697  84.39
       991     325.7203     62.23233  21.7727   0.2075  6.61    367.8779    688.6857     1.003     0.734  76.52
       992     1637.957     49.92431  20.0190   0.0331  3.50    129.2172    686.6104     1.320     1.267  88.37
       993      11506.2      123.537  17.9025   0.0117  4.06    541.7878    680.2102     3.255     2.378 -73.32
       994     274.5846     44.65366  21.9581   0.1766  8.45    376.5768    688.4894     0.502     0.492 -62.62
       995     298.0878     58.74578  21.8689   0.2140  6.64   1316.3173    687.1438     0.965     0.683 -20.60
       996     454.4402     61.92348  21.4111   0.1480  5.53   1043.6444    686.4285     1.174     0.900  31.80
       997     1145.243     85.13071  20.4075   0.0807  5.08    399.3636    684.3096     1.536     1.509 -60.58
       998     214.9151     46.75121  22.2241   0.2362  6.27   1234.9583    686.0256     0.880     0.533 -41.70
       999     349.3372     63.14981  21.6967   0.1963  5.55   1581.6564    684.8658     1.221     0.873 -14.08
      1000     486.2635     61.30112  21.3376   0.1369  4.74   1564.2684    683.5272     1.254     1.107  22.44
      1001     632.8907     83.07907  21.0515   0.1426  6.87    388.5348    681.9623     1.300     0.926 -66.77
      1002     260.5572     47.56433  22.0150   0.1982  5.48    205.0134    681.9431     0.795     0.763 -36.16
      1003     127.3174     29.69746  22.7926   0.2533  5.01    214.9909    682.0000     0.856     0.289   0.00
      1004     132.1228     26.27191  22.7523   0.2159  4.26    285.3763    678.1717     0.755     0.444  71.48
      1005     510.1331     50.68656  21.2856   0.1079  4.10    199.7885    676.3477     1.293     0.959   1.86
      1006     578.1081     59.07124  21.1498   0.1110  4.47   1163.0146    675.0370     1.288     1.129 -17.43
      1007     208.5876     32.17639  22.2566   0.1675  3.50   1271.0575    673.7692     1.049     0.647 -28.85
      1008     1195.449     63.45269  20.3610   0.0576  4.02    229.8063    671.8851     1.516     1.403  30.71
      1009     222.2158     29.04469  22.1878   0.1419  3.50    424.0423    672.9166     0.790     0.742 -50.08
      1010     239.7137      38.6712  22.1055   0.1752  4.12    118.5113    672.2138     0.951     0.728  -2.79
      1011     2428.261     81.91707  19.5915   0.0366  3.72   1219.9308    667.9637     2.267     1.767 -75.61
      1012     890.8731     91.21899  20.6802   0.1112  6.41    526.4169    668.8047     1.417     1.193  14.64
      1013     211.6303      38.1722  22.2408   0.1959  4.38   1422.4828    667.0751     0.894     0.688  37.75
      1014     918.7645     52.54382  20.6468   0.0621  4.16   1178.6429    665.8246     1.201     1.109 -22.24
      1015     627.0759     47.15952  21.0615   0.0817  3.50   1068.5326    665.3899     1.326     1.155 -63.13
      1016     489.6141     71.68162  21.3301   0.1590  7.71    990.3146    665.7042     0.935     0.760  43.58
      1017     265.6472      38.6712  21.9940   0.1581  3.80    413.3866    665.5165     1.082     0.805  29.88
      1018       172.77       40.131  22.4611   0.2523  5.74    240.9824    665.4574     0.785     0.498   0.03
      1019     126.8747     37.15409  22.7963   0.3180  7.72    824.6712    662.6766     0.571     0.337 -44.75
      1020     411.6998     43.34644  21.5183   0.1143  3.92     80.6151    661.6848     1.035     0.957 -24.93
      1021     831.2583     47.15952  20.7554   0.0616  3.75    565.3372   1590.2152     1.216     1.069  11.27
      1022      129.419     35.57233  22.7748   0.2985  6.97    805.0000    660.9226     0.831     0.289  90.00
      1023     160.5477     26.99182  22.5408   0.1826  3.50    253.6775    660.5676     0.955     0.539  58.96
      1024     431.7262     66.40554  21.4668   0.1670  6.15    766.5049   1482.6777     0.985     0.955  50.25
      1025     1026.958     91.63839  20.5259   0.0969  5.14   1159.2809    649.5344     2.022     1.296 -21.25
      1026     695.5363     59.10054  20.9490   0.0923  5.18   1153.0782    646.0964     1.574     1.285   5.66
      1027     1853.444     64.35278  19.8848   0.0377  4.16    651.3367    644.7316     1.515     1.336 -79.24
      1028     1832.755     91.63839  19.8970   0.0543  5.14   1383.0079   1592.3237     1.979     1.346 -15.92
      1029     1392.198     55.38605  20.1955   0.0432  3.58    274.9601    640.3782     1.508     1.268 -32.62
      1030     968.6471     95.32999  20.5894   0.1069  6.34    551.5982    637.3240     1.923     0.985 -89.31
      1031     622.1981     71.94859  21.0700   0.1256  5.29    390.8026    638.4297     1.435     1.059 -50.04
      1032     570.1738     74.82243  21.1648   0.1425  7.08    646.0698    636.2581     1.089     0.849  44.48
      1033      398.549     66.98049  21.5536   0.1825  5.86    654.5298    656.1057     1.090     0.980  76.61
      1034     143.6453     23.98286  22.6616   0.1813  4.34    617.4513    634.4785     0.508     0.489 -47.83
      1035     247.6317     58.08938  22.0703   0.2548  6.79    399.0837    633.4766     0.913     0.669  53.23
      1036     674.6722     51.80891  20.9820   0.0834  3.68    853.8466    630.3680     1.417     1.154  -8.30
      1037      3379.19     55.38605  19.2327   0.0178  3.50    804.5963    629.6777     1.441     1.400  59.96
      1038     249.6936     31.57491  22.0613   0.1373  3.50     67.2646    631.3818     0.931     0.737 -40.35
      1039     3255.496     57.42548  19.2732   0.0192  3.58    869.2460    653.6975     1.496     1.428  88.87
      1040     335.4516     65.82557  21.7407   0.2131  6.72    256.0288    630.0186     1.085     0.728 -72.46
      1041      383.123     62.84547  21.5964   0.1781  5.85    649.2907    629.6577     1.027     0.921  33.32
      1042     498.9684     39.65038  21.3096   0.0863  3.50    940.8675    628.3223     1.142     0.963  -5.12
      1043      490.744      77.5899  21.3276   0.1717  6.68   1122.6760    626.9645     1.217     0.942  65.32
      1044      392.385      56.0741  21.5705   0.1552  5.06    131.8094    626.0908     1.180     0.888 -73.80
      1045     5544.853     57.75838  18.6951   0.0113  3.50   1580.3518    622.6675     1.532     1.511 -39.77
      1046     388.4598     60.35555  21.5814   0.1687  5.64   1286.6776    625.5887     1.120     0.843  24.99
      1047     854.5388      97.5172  20.7255   0.1239  5.44    342.9802    623.9680     1.949     1.383  13.04
      1048     235.1616     45.50428  22.1264   0.2101  6.84   1554.4969    625.0047     0.799     0.499  87.70
      1049     751.9045     102.5016  20.8644   0.1480  6.78   1306.1353    641.8413     1.582     1.198  63.37
      1050     432.4938     61.61309  21.4648   0.1547  6.56   1077.9836    622.9703     1.009     0.734  88.41
      1051     3014.269     102.5016  19.3568   0.0369  4.38   1150.4711    617.3213     2.546     1.784 -17.42
      1052     173.8618     26.99182  22.4543   0.1686  3.50   1055.6780    621.8903     0.736     0.667  75.40
      1053     198.6705     37.15409  22.3094   0.2031  7.67    824.6894    620.3559     0.577     0.333  46.95
      1054     1135.027      85.8037  20.4173   0.0821  5.29     93.2047    618.4541     1.701     1.269 -16.58
      1055     153.1009     41.07539  22.5923   0.2914  6.48    944.8412    619.5938     0.765     0.444  19.76
      1056     143.7474     33.34682  22.6608   0.2519  6.57    755.0269   1467.0000     0.864     0.289   0.00
      1057     155.9826     41.07539  22.5721   0.2860  7.37     79.9885    616.5254     0.795     0.314 -32.13
      1058     571.7862     76.84502  21.1617   0.1460  7.56    530.4330    614.5322     0.934     0.910 -36.56
      1059     643.9138     77.34241  21.0327   0.1304  6.27    288.2154    614.2457     1.239     1.011 -12.92
      1060     1050.985     74.04972  20.5008   0.0765  4.63   1366.6591    612.7858     1.544     1.355  13.68
      1061     665.6127     45.08098  20.9967   0.0736  3.50   1233.4250    615.0225     1.207     1.116  59.95
      1062     295.3543     46.75121  21.8789   0.1719  4.61    928.5391    612.6153     1.065     0.833 -55.26
      1063     738.8456     52.90745  20.8834   0.0778  3.50    994.1231    610.6751     1.549     1.220  13.73
      1064     2791.779        156.9  19.4401   0.0610  7.88   1334.2942    608.1458     2.115     1.557 -65.49
      1065     402.6326     43.34644  21.5425   0.1169  4.22    961.7093    610.4003     0.951     0.901  66.86
      1066     1191.306     64.65002  20.3647   0.0589  4.65    943.8196    608.4376     1.341     1.177  55.06
      1067     550.3424     44.65366  21.2032   0.0881  4.07   1009.5557    606.5241     0.999     0.975 -49.56
      1068     411.9458     65.82557  21.5177   0.1735  6.05    299.5805   1593.3035     1.113     0.889  33.73
      1069     126.1319      38.1722  22.8027   0.3287  7.06   1077.4994   1547.9965     0.790     0.316 -57.66
      1070     521.5005     76.59512  21.2616   0.1595  5.61    512.1100    603.4553     1.312     1.169 -20.64
      1071      855.393     86.69288  20.7244   0.1101  7.25    763.2156    601.6902     1.236     0.949  30.65
      1072      148.681     24.76939  22.6241   0.1809  4.93   1558.4954    601.9984     0.791     0.316 -57.67
      1073     862.5037     82.84798  20.7154   0.1043  5.53   1424.8799    599.8256     1.487     1.266  37.36
      1074     725.7557     51.43751  20.9028   0.0770  3.50    666.8212    598.2592     1.397     1.252 -89.23
      1075     393.5594     49.53879  21.5673   0.1367  4.31    356.2543    597.4112     1.205     0.880 -14.51
      1076     464.2394     62.23233  21.3879   0.1456  5.13   1124.0464    595.9466     1.145     1.063  67.65
      1077     149.1309     30.96174  22.6209   0.2255  5.09   1375.3909    654.8436     0.748     0.443 -70.17
      1078     144.2932     22.32683  22.6567   0.1680  3.50    632.2499   1560.5659     0.747     0.453 -19.88
      1079     241.0968     47.15952  22.0993   0.2124  8.72   1552.4744    589.4664     0.502     0.496 -42.76
      1080     209.2413     45.08098  22.2532   0.2340  7.89     74.0218   1589.0000     0.864     0.289   0.00
      1081     227.3056     46.33929  22.1633   0.2214  6.13    915.9588    588.9963     0.901     0.530 -46.44
      1082     297.7274     35.02921  21.8702   0.1278  3.50   1370.1644   1552.9791     0.953     0.838  88.91
      1083     444.6628     39.65038  21.4347   0.0968  3.50    117.2229    615.4987     1.137     0.993  -7.82
      1084     152.6624     37.15409  22.5955   0.2643  7.60    555.3285   1585.3206     0.570     0.337 -44.62
      1085     259.7849     48.36379  22.0182   0.2022  7.15   1163.5027    586.4526     0.943     0.418  18.65
      1086     259.7243     51.43751  22.0185   0.2151  6.40    246.9020   1593.1410     0.850     0.649  48.96
      1087     462.9785       40.131  21.3909   0.0941  3.50   1512.2020   1551.0051     1.095     0.999  26.60
      1088     264.3432     51.06342  21.9994   0.2098  7.25     57.0006    924.5162     0.800     0.499  -2.06
      1089     203.9397     47.56433  22.2810   0.2533  6.08    920.9018   1580.1771     1.141     0.433  27.99
      1090     577.8691     59.71685  21.1502   0.1122  4.98   1337.1754   1570.6843     1.251     0.955  42.94
      1091     1466.857     72.21458  20.1388   0.0535  5.11   1068.1444   1584.9408     1.391     1.205 -18.25
      1092     221.3727     28.37691  22.1920   0.1392  3.50    894.2338   1529.2959     0.911     0.622  -5.14
      1093     184.6167     43.78652  22.3891   0.2576  6.95   1199.7853   1590.4370     0.737     0.452 -20.49
      1094     252.7658     44.22221  22.0480   0.1900  5.42   1471.1613   1582.0320     0.833     0.655 -47.85
      1095     5257.463      58.4185  18.7528   0.0121  3.50    859.8286   1560.2703     1.550     1.477  55.71
      1096     919.0347     46.75121  20.6465   0.0552  3.64   1489.8761   1574.2629     1.214     1.106  77.76
      1097     199.7707     46.75121  22.3035   0.2542  6.50   1278.7657   1569.7704     0.762     0.558  44.81
      1098     302572.7     80.50053  14.3527   0.0003  3.50    302.4356   1562.6078     2.176     2.050 -38.25
      1099     3997.326     114.1813  19.0504   0.0310  4.29    514.8197    937.1562     2.817     2.087  68.37
      1100     499.8121     68.67647  21.3078   0.1492  5.13    771.8876   1582.9897     1.668     0.881  51.08
      1101     287.4665     41.99855  21.9083   0.1587  4.55   1334.4878   1588.3337     0.905     0.789  24.73
      1102      8302.35     61.92348  18.2568   0.0081  3.50     90.9022   1569.3699     1.704     1.557 -33.94
      1103      761.907     82.38384  20.8500   0.1174  6.68    640.0273   1585.4941     1.205     1.069  19.02
      1104     189.1956      38.6712  22.3625   0.2220  5.43     91.5237   1584.4420     0.932     0.421 -71.18
      1105     328.5862      53.2686  21.7632   0.1761  4.81   1081.5741   1585.6884     1.228     0.816  39.27
      1106     395.9935     63.45269  21.5606   0.1740  6.94    947.0299   1550.8169     0.917     0.734  88.51
      1107     915.1642     60.03705  20.6510   0.0712  4.44     12.4886   1521.5864     1.281     1.217 -16.59
      1108     227.5635     51.80891  22.1620   0.2472  5.20   1298.2982    920.2986     1.028     0.788  44.53
      1109     1426.679     66.98049  20.1690   0.0510  3.99   1412.8849   1580.5703     1.643     1.427  79.44
      1110     660.6649     71.94859  21.0048   0.1183  5.40   1342.9137    918.7228     1.385     1.068  34.33
      1111     10556.91     62.84547  17.9959   0.0065  3.50     20.2228   1565.5145     1.672     1.603  78.10
      1112     299934.8     80.73835  14.3622   0.0003  3.50    485.9427   1557.0347     2.136     2.046 -42.90
      1113     402.2182     48.36379  21.5436   0.1306  4.65    309.0428    924.6663     1.145     0.817 -34.05
      1114     457.5909      55.0388  21.4036   0.1306  4.35    932.5225    923.8937     1.356     1.024  30.08
      1115     7603.532     81.44763  18.3522   0.0116  3.50    782.9470   1564.7427     2.445     1.818 -73.22
      1116     171.9602      42.4526  22.4662   0.2681  6.64    164.3897   1536.7991     0.762     0.443 -70.81
      1117     128421.8     185.7705  15.2832   0.0016  3.50    680.5534   1551.5559     5.271     4.420 -23.02
      1118     1507.574     92.88523  20.1091   0.0669  4.74    384.4798   1561.3481     2.503     1.279 -85.79
      1119     1942.522     118.6283  19.8339   0.0663  5.16   1198.1710    920.8002     2.983     1.485 -60.42
      1120     368.5003     39.16385  21.6387   0.1154  3.64    736.6094   1556.5059     1.068     0.915 -43.80
      1121     228.4606     44.65366  22.1578   0.2123  5.60   1341.1749   1563.1135     0.826     0.655 -47.79
      1122     502.1871      58.4185  21.3026   0.1263  3.74    530.2366   1521.9132     1.695     1.170  74.22
      1123     1913.072     73.26886  19.8505   0.0416  3.85   1427.3650   1535.1172     2.410     1.236 -49.82
      1124      532.299     71.68162  21.2394   0.1462  6.15    131.6834   1551.1514     1.171     0.966  22.24
      1125     275.2196     52.90745  21.9556   0.2088  6.17    102.9862   1558.3301     1.035     0.612 -53.17
      1126     450.7632     75.07824  21.4199   0.1809  7.71    781.2807   1551.4680     1.240     0.635 -40.05
      1127     574.1852     68.67647  21.1572   0.1299  5.66    350.7920   1550.5676     1.156     1.077  49.93
      1128     759.1908     46.33929  20.8539   0.0663  3.50   1564.8378   1561.7057     1.304     1.119  83.63
      1129     574.1265     63.14981  21.1573   0.1195  6.00   1231.5084   1553.1803     0.988     0.927   3.00
      1130     145.9883     37.66658  22.6440   0.2802  7.66   1235.3065   1568.3278     0.563     0.340 -46.11
      1131     205.1186     42.90185  22.2748   0.2271  6.68   1236.2101   1556.6301     0.751     0.448 -17.35
      1132      332.933     54.68934  21.7489   0.1784  6.11   1056.5302   1563.0574     0.995     0.664  25.40
      1133     306.5961     57.75838  21.8384   0.2046  6.57   1349.1545   1557.6869     0.928     0.666  67.60
      1134     392.8127     41.53954  21.5693   0.1148  3.50   1151.4690   1534.5199     1.345     0.841 -56.78
      1135      220.391     44.65366  22.1968   0.2200  8.25    580.4973   1557.4973     0.510     0.490 -45.00
      1136     224.0075     46.75121  22.1791   0.2267  7.30    781.2363   1431.5735     0.758     0.446 -20.35
      1137     225.9286      48.7586  22.1699   0.2344  6.61    202.2428   1558.5861     0.973     0.478   8.11
      1138     5297.987     78.08254  18.7445   0.0160  3.63    861.9512   1544.9958     2.097     1.822  41.70
      1139     236.0202     45.50428  22.1224   0.2094  6.93    518.9573   1557.5223     0.783     0.499  -0.91
      1140     219.9861     31.57491  22.1988   0.1559  3.50   1214.7906   1524.4839     0.934     0.728  86.35
      1141     2239.417     57.42548  19.6794   0.0278  3.92   1220.6597   1549.9053     1.427     1.293 -19.50
      1142     12672.69     69.78423  17.7976   0.0060  3.50    653.0042   1541.6216     1.896     1.748  72.30
      1143      301.741     49.53879  21.8557   0.1783  5.08   1059.9751   1535.1746     1.136     0.722  70.93
      1144     453.5976     69.78423  21.4131   0.1671  6.65    624.7551   1536.4225     1.583     0.562 -53.07
      1145      732.989     64.35278  20.8920   0.0953  5.73    918.2714   1534.6798     1.058     0.989 -47.41
      1146     148.7128     37.15409  22.6239   0.2713  7.60   1119.6638   1524.6885     0.569     0.338 -43.81
      1147     17630.89     64.35278  17.4391   0.0040  3.50    133.3169   1540.6968     1.672     1.649 -24.84
      1148     515.4521     65.24044  21.2743   0.1375  8.03    925.5433   1531.0312     0.806     0.684  -2.87
      1149     981.3388     75.33317  20.5752   0.0834  4.38    504.2901   1537.7576     1.672     1.490  71.73
      1150     133.9224     33.91689  22.7376   0.2750  7.44    799.3398   1539.6708     0.578     0.333  44.55
      1151     1592.501     102.6885  20.0496   0.0700  4.42    973.6911   1532.5393     2.758     1.631 -87.30
      1152     738.8394     45.50428  20.8834   0.0669  3.50    261.7225   1537.4886     1.256     1.152 -41.41
      1153     155.3159      38.6712  22.5767   0.2704  5.35    919.8371   1545.0233     0.913     0.472 -54.27
      1154     63.96691     15.16809  23.5399   0.2575  3.50    593.3183   1563.3206     0.565     0.340 -45.11
      1155     362.4201     45.08098  21.6567   0.1351  4.35    328.4428   1540.2358     0.963     0.927  -0.93
      1156     177.0215     43.34644  22.4347   0.2659  6.82   1180.5985   1525.8022     0.746     0.455  72.11
      1157     2959.286     83.53935  19.3768   0.0307  4.01    413.9578   1531.4960     2.045     1.787  19.39
      1158     397.1985     68.95508  21.5573   0.1885  7.33   1590.1132   1504.2179     1.115     0.662  68.35
      1159     114.6673     26.27191  22.9062   0.2488  5.34   1274.3250   1575.3403     0.577     0.334 -45.67
      1160      104.247     27.69302  23.0096   0.2885  5.62   1350.2899   1529.3416     0.561     0.340 -47.74
      1161      1382.96     80.97546  20.2028   0.0636  4.85    731.6161   1527.3682     1.698     1.345  54.38
      1162     252.7995     38.80755  22.0478   0.1667  7.53    676.7392   1529.7611     1.094     0.674  73.31
      1163     679.5101     45.92369  20.9743   0.0734  3.50    877.4224   1526.1721     1.424     1.016 -37.18
      1164      98.2102     28.37691  23.0744   0.3138  5.86   1241.3517   1488.3228     0.580     0.331 -43.81
      1165     262.6758      38.1722  22.0062   0.1578  4.19    267.9446   1528.4790     0.949     0.791 -10.18
      1166     2553.184     67.83378  19.5371   0.0289  3.62   1545.8411   1514.5074     1.988     1.455  76.53
      1167     157.2684      38.1722  22.5632   0.2636  7.89    705.6710    935.3454     0.581     0.331  45.67
      1168     184.7885     41.07539  22.3881   0.2414  7.36   1507.4955   1520.5085     0.513     0.487 -44.94
      1169     1954.643     87.35383  19.8271   0.0485  4.46   1099.5609   1518.8628     2.093     1.535 -63.80
      1170     294.8186     49.92431  21.8809   0.1839  5.69      3.5383   1511.1969     1.037     0.722  41.12
      1171     1421.841     93.29713  20.1727   0.0713  4.84    377.1177   1522.6619     2.123     1.433  71.23
      1172     174.2815       40.131  22.4517   0.2501  5.62   1277.1594   1480.1770     0.753     0.569  46.67
      1173     102.9361     21.45092  23.0234   0.2263  4.49   1306.3158   1482.6862     0.561     0.341  44.89
      1174     643.0229     60.35555  21.0342   0.1019  4.49   1412.0913   1501.4286     1.405     1.097  78.49
      1175     309.2786     56.75381  21.8289   0.1993  8.83   1278.8170   1519.3813     0.763     0.441 -19.15
      1176     4067.433      58.4185  19.0315   0.0156  3.50    721.7819   1503.0905     1.588     1.448 -86.69
      1177     592.6166      64.9459  21.1228   0.1190  5.41    928.4844   1495.6710     1.389     0.878 -41.07
      1178     163.7066     33.91689  22.5196   0.2250  7.29    196.6839    930.3240     0.566     0.339  45.40
      1179     1385.212     61.92348  20.2010   0.0485  3.50     83.2926   1517.9885     1.715     1.482  28.53
      1180     826.7043     52.90745  20.7614   0.0695  3.90     44.8373    925.0435     1.352     1.129 -23.67
      1181     40088.85     70.87467  16.5472   0.0019  3.50    390.9407   1513.8333     1.870     1.805  27.00
      1182     159.8326     32.76683  22.5456   0.2226  5.21    119.7353   1530.4623     0.722     0.457 -20.87
      1183     520.5099     66.40554  21.2637   0.1385  5.38    678.6454   1500.3558     1.365     0.924  82.75
      1184     404.2546     43.78652  21.5381   0.1176  3.57    548.8270   1527.9299     1.326     0.913 -10.60
      1185     108.2022     21.45092  22.9692   0.2153  4.77   1055.3641   1515.7234     0.564     0.337  40.56
      1186     147.6876     35.02921  22.6314   0.2576  6.21    909.9866   1502.4736     0.806     0.310  31.76
      1187     276.8119     52.54382  21.9493   0.2061  6.51     66.8363    927.8626     0.797     0.687 -49.00
      1188     314.6051     62.23233  21.8104   0.2148  6.69   1584.8062   1508.9089     1.105     0.647 -67.76
      1189     186.2438     44.22221  22.3796   0.2579  5.89   1483.6503   1484.4869     1.117     0.437  54.78
      1190     234.2015     51.06342  22.1308   0.2368  5.83    589.2923   1515.9745     1.007     0.632 -35.14
      1191     947.8859     75.33317  20.6129   0.0863  5.19   1094.9485   1502.9655     1.375     1.272  82.63
      1192     2360.064      64.9459  19.6225   0.0299  4.03    481.9689   1513.4064     1.539     1.387  63.01
      1193     514.2837     63.75413  21.2768   0.1346  4.55    870.5200   1493.5911     1.599     0.996  74.00
      1194     202.8586     43.78652  22.2868   0.2344  4.64   1207.3704   1508.5194     0.921     0.804  73.73
      1195     690.6821     60.98756  20.9566   0.0959  4.89    610.4754   1456.8412     1.247     1.020  75.70
      1196     234.3406     51.80891  22.1302   0.2401  7.26     25.8323    935.8251     0.758     0.570  44.02
      1197     2517.165     69.23256  19.5525   0.0299  3.50    339.1728   1431.2740     2.165     1.505  23.42
      1198     930.7467     68.95508  20.6327   0.0805  4.86   1310.5485   1503.1808     1.405     1.195 -14.74
      1199     271.2256     58.08938  21.9715   0.2326  6.37    347.2825   1513.8691     0.969     0.682  20.02
      1200     190.3591     36.63443  22.3558   0.2090  4.96   1015.0207    928.8486     0.950     0.466  35.43
      1201     855.0079     69.50894  20.7249   0.0883  4.73    664.5756    924.9575     1.473     1.212   8.81
      1202     134.8933     36.10729  22.7298   0.2907  7.57    949.6786    930.3201     0.566     0.339  44.94
      1203     427.0993     52.90745  21.4785   0.1345  5.19    671.7664   1496.5830     0.945     0.913  53.94
      1204     815.4837      48.7586  20.7762   0.0649  3.50   1116.5288    931.3377     1.310     1.241  33.99
      1205     133.2051     33.91689  22.7435   0.2765  5.82   1148.0065    942.2097     0.689     0.407  -0.25
      1206     1528.294     48.36379  20.0943   0.0344  3.50    842.9102   1497.6720     1.319     1.217  -4.13
      1207     274.1634     55.73114  21.9598   0.2208  6.86   1159.6078    932.2704     0.965     0.578  18.43
      1208     241.5172     30.33619  22.0974   0.1364  3.50   1123.2875   1496.1237     0.869     0.689 -25.19
      1209     392.0886     47.56433  21.5713   0.1317  4.30   1231.4363   1497.0376     1.048     0.934  87.88
      1210     3201.311     104.7221  19.2915   0.0355  4.15    996.4998   1474.0817     3.346     1.578 -15.96
      1211     520.0364     73.53007  21.2647   0.1536  7.57    218.7909    937.3572     1.055     0.719  50.37
      1212     163592.4     78.08254  15.0204   0.0005  3.50    267.5792   1506.1086     2.108     1.996  31.90
      1213     677.9708     73.26886  20.9768   0.1174  4.96   1022.4867   1477.2216     1.713     1.076  56.95
      1214     5817.954     67.26612  18.6429   0.0126  3.50   1321.1750    927.3029     1.918     1.548 -31.41
      1215     191.1395      48.7586  22.3514   0.2770  7.59    610.5973   1473.1787     0.751     0.444 -69.96
      1216     2917.955     80.02278  19.3921   0.0298  3.50    573.7230   1481.3323     2.549     1.705 -42.57
      1217     133.6077     33.34682  22.7402   0.2711  5.26    108.2056   1475.6201     0.770     0.450 -17.00
      1218      193.192     39.65038  22.3398   0.2229  6.06    899.7390    948.3982     0.742     0.457 -17.40
      1219     1611.058     63.45269  20.0370   0.0428  4.00     76.3422   1487.1833     1.506     1.358   4.11
      1220     380.1481     64.05415  21.6049   0.1830  6.34   1094.4993   1491.3654     1.036     0.805 -51.36
      1221     104.7881     29.69746  23.0040   0.3078  5.70    507.9611   1461.0000     0.856     0.289   0.00
      1222     885.7225     45.08098  20.6865   0.0553  3.50    389.9019   1452.5068     1.210     1.098 -34.28
      1223     436.1684     62.23233  21.4556   0.1550  5.64    428.6944   1470.8623     1.103     0.942 -56.91
      1224      791.416      55.0388  20.8088   0.0755  4.01   1126.8975   1466.7148     1.449     1.081  45.06
      1225     110.7035     22.32683  22.9444   0.2190  3.50   1055.1696   1377.4250     0.739     0.443  21.80
      1226     378.2402     61.92348  21.6104   0.1778  6.20   1158.2081   1456.9692     1.247     0.674 -40.32
      1227     343.8956     49.92431  21.7137   0.1577  4.70   1143.4432   1454.9917     1.147     0.809  27.46
      1228     402.1043     67.83378  21.5439   0.1832  6.63    820.0217   1474.0697     1.268     0.692 -33.06
      1229     339.2833     58.08938  21.7284   0.1859  5.59   1112.2775   1457.6743     1.160     0.786 -71.88
      1230     112.8156     32.17639  22.9239   0.3097  6.87    170.3289   1303.6914     0.564     0.340  43.96
      1231     802.6586     68.11584  20.7935   0.0922  4.16   1568.6273   1475.1162     1.926     1.162 -12.46
      1232     108.8286     26.99182  22.9629   0.2694  3.91    243.9440   1475.0654     0.592     0.585  54.73
      1233     143.5623     35.02921  22.6622   0.2650  6.46   1056.5527   1476.5132     0.507     0.490  49.46
      1234     77258.37     73.79035  15.8349   0.0010  3.50   1176.9700    928.7754     1.943     1.891 -82.54
      1235     9856.653     71.68162  18.0705   0.0079  3.50   1065.5323    938.0008     2.193     1.581  68.71
      1236     430.0887     48.36379  21.4709   0.1221  4.31    165.0955   1453.4156     1.145     0.907  24.64
      1237     404.5511     68.95508  21.5373   0.1851  6.41    683.5814   1467.8500     1.130     0.854   9.72
      1238     1044.852     58.08938  20.5071   0.0604  3.82    197.0136   1475.9915     1.604     1.205   2.31
      1239     172.7088     39.16385  22.4615   0.2463  7.10   1426.0396   1466.0000     0.850     0.289   0.00
      1240     484.5934     61.92348  21.3413   0.1388  4.91    446.2199   1464.2664     1.292     1.021 -54.82
      1241     263.3727     55.38605  22.0034   0.2284  6.17   1197.9465   1423.0957     0.978     0.698 -15.66
      1242     209.6589       40.131  22.2510   0.2079  8.48   1493.6766   1435.6777     0.568     0.338 -44.95
      1243     4432.434     68.67647  18.9382   0.0168  3.50   1029.9570   1399.7180     1.938     1.630  18.74
      1244     201.9847     44.65366  22.2915   0.2401  8.26     46.5170   1472.5074     0.507     0.492 -45.46
      1245     174.5856       40.131  22.4498   0.2496  8.23   1209.6674   1481.6846     0.569     0.338 -44.17
      1246     1099.835     59.07124  20.4515   0.0583  3.50    724.2952    940.6291     1.630     1.436  78.13
      1247     313.1099     58.08938  21.8155   0.2015  6.06    804.8016   1469.2922     1.104     0.670 -71.18
      1248     519.8385     72.47958  21.2651   0.1514  4.71   1380.8567   1460.0270     1.743     1.104 -81.08
      1249     203.5622     46.75121  22.2830   0.2494  6.91   1564.5082    938.5342     0.998     0.402  18.83
      1250     738452.8     88.44443  13.3840   0.0001  3.50   1089.0851   1433.4325     2.390     2.190 -45.31
      1251     145.8187     35.02921  22.6452   0.2609  7.39    509.6710   1450.6987     0.561     0.341 -43.52
      1252      385.389     35.02921  21.5900   0.0987  3.50    385.7596   1436.3312     0.986     0.842 -49.13
      1253     337.4394     56.75381  21.7343   0.1827  5.31    632.2385   1437.9141     1.268     0.755   7.85
      1254     163.0656     44.65366  22.5239   0.2974  8.39   1330.4896   1462.4996     0.506     0.494 -45.28
      1255     161.6302       40.131  22.5335   0.2696  8.04    308.3484    943.0303     0.921     0.209  61.49
      1256     368.7556     44.22221  21.6379   0.1302  3.50    920.7964   1453.5061     1.638     0.817  51.59
      1257     1125.799     46.75121  20.4261   0.0451  3.50   1345.9294   1435.2820     1.226     1.193 -76.85
      1258     326.7339     52.90745  21.7693   0.1759  5.10   1164.6783    945.6156     0.987     0.872  45.07
      1259     145.7194     26.27191  22.6460   0.1958  3.94    767.5081   1425.0990     0.767     0.499  86.74
      1260     180.2127     41.99855  22.4153   0.2531  5.66   1001.7594   1445.6437     0.709     0.650 -68.41
      1261     662.4272      53.2686  21.0019   0.0873  3.50   1223.7201   1450.2407     1.778     1.075 -81.81
      1262     1494.875     55.38605  20.1183   0.0402  4.03    729.8526   1445.3531     1.266     1.250 -30.47
      1263     427.5922     66.98049  21.4772   0.1701  5.57    659.7692   1454.2317     1.304     0.925 -60.82
      1264     360.6578     62.84547  21.6620   0.1892  6.94    178.7132   1437.3250     0.928     0.737  38.62
      1265     8637.494     60.98756  18.2138   0.0077  3.50   1037.2583   1391.3173     1.595     1.570 -53.73
      1266     87.75253     22.32683  23.1966   0.2763  4.06    882.9980   1442.0000     0.879     0.289   0.00
      1267     17732.01      64.9459  17.4329   0.0040  3.50    222.9921   1434.2941     1.756     1.650 -67.87
      1268     413.0889     59.07124  21.5147   0.1553  6.94    177.0059   1444.9395     0.773     0.765 -71.79
      1269     258.2958     48.36379  22.0245   0.2033  5.09    817.7059   1441.2480     1.058     0.695  37.12
      1270     663.6849     43.78652  20.9999   0.0716  3.51     86.2619   1448.2849     1.220     1.089 -57.80
      1271     891.1686     100.2319  20.6799   0.1221  6.36   1163.3263   1450.2260     1.879     1.104 -59.86
      1272     362.6596     76.84502  21.6560   0.2301  6.34    948.2295   1436.6423     1.269     0.939   3.21
      1273     2104.007     52.54382  19.7472   0.0271  3.50   1269.7567   1437.7062     1.408     1.326 -68.87
      1274     13051.39     62.53965  17.7656   0.0052  3.50    617.5487   1438.7681     1.636     1.586   1.02
      1275     222.1992     30.33619  22.1879   0.1483  3.50   1513.8865   1444.3007     0.981     0.642  53.61
      1276     124.3302     32.17639  22.8183   0.2811  6.50    678.6925   1481.6672     0.566     0.339 -46.27
      1277     12960.44     62.23233  17.7732   0.0052  3.50    306.5565   1407.1111     1.630     1.563 -43.55
      1278     225.0581     51.06342  22.1740   0.2464  9.22    794.4772   1428.4965     0.501     0.499  52.43
      1279     447.5776     66.40554  21.4276   0.1611  6.08    117.0751   1464.8541     1.150     0.885  30.87
      1280     216.0862      42.4526  22.2182   0.2134  7.75    516.0369   1423.0000     0.857     0.289   0.00
      1281     356.3419      38.6712  21.6751   0.1179  3.50    995.4626   1436.6737     1.205     0.856  56.53
      1282     674.6241     77.09412  20.9821   0.1241  5.25   1279.2168   1431.3303     1.901     0.935 -49.34
      1283     627.3663     63.75413  21.0610   0.1104  3.70   1371.2385   1435.2218     2.233     1.088 -37.19
      1284     1341.934     70.33156  20.2355   0.0569  4.11    645.3327   1437.8129     2.127     1.142  -3.06
      1285     159.8273     36.10729  22.5457   0.2453  5.60   1157.4088    943.2439     0.738     0.453  70.90
      1286     3937.103     79.78283  19.0668   0.0220  3.82    348.3140   1410.0635     2.127     1.707  62.41
      1287     270.7285     46.33929  21.9734   0.1859  5.14   1208.7250   1381.4968     0.980     0.709 -88.90
      1288     188.5876     47.56433  22.3660   0.2739  5.44    466.0338   1427.9614     0.798     0.770 -65.48
      1289     207.2693     44.65366  22.2634   0.2340  7.20    600.7676    948.5938     0.751     0.449  19.25
      1290     92991.16     79.54216  15.6337   0.0009  3.50   1124.8231   1418.3998     2.149     2.018 -61.70
      1291     557.1725     47.96572  21.1898   0.0935  3.50     42.7183    946.7272     1.426     1.062  69.83
      1292     779.7111     56.41498  20.8249   0.0786  4.25   1583.8885   1387.7236     1.367     1.084 -13.95
      1293     263.5936      55.0388  22.0024   0.2268  7.98   1568.9755   1406.4808     0.793     0.499   1.80
      1294     3641.414     117.8175  19.1516   0.0351  4.25    150.3591   1351.0763     3.005     2.128  78.60
      1295     1141.184     62.23233  20.4114   0.0592  4.53   1361.7338   1402.7894     1.334     1.161 -72.07
      1296     177.3937     33.91689  22.4324   0.2076  6.38      1.6192   1411.5530     1.089     0.314 -69.20
      1297     321.5881     60.98756  21.7865   0.2060  7.68   1551.7018   1412.1735     0.867     0.597  59.65
      1298     1374.711     64.35278  20.2093   0.0508  4.34    131.8516    946.4217     1.512     1.195 -43.62
      1299     99.93814     21.45092  23.0555   0.2331  3.50    780.4999    950.4965     0.501     0.499 -44.88
      1300     343.9904      53.2686  21.7134   0.1682  7.67    144.5013    952.0926     0.788     0.500 -88.35
      1301     315.6645     59.71685  21.8067   0.2054  6.66    330.8023   1411.9292     0.934     0.730  -3.94
      1302     410876.5     83.30953  14.0205   0.0002  3.50    112.6973   1392.3237     2.221     2.100 -39.33
      1303     251.2103     51.06342  22.0547   0.2208  5.74    386.4774   1403.1870     0.948     0.725   4.21
      1304     606.0165     63.75413  21.0986   0.1142  4.58    427.5590   1419.4037     1.480     1.086 -18.70
      1305     720.5222      70.8027  20.9107   0.1067  8.63   1147.3156   1399.5219     2.009     1.206 -19.23
      1306     8211.928     62.23233  18.2687   0.0082  3.50   1385.1429   1414.3977     1.641     1.599  16.40
      1307       1077.5     53.98364  20.4737   0.0544  4.15    265.9622    948.5836     1.213     1.102  84.23
      1308     588.9025     49.15024  21.1297   0.0906  3.50   1595.7063   1422.8269     1.463     1.106  35.26
      1309     733.9666     78.81573  20.8906   0.1166  5.37    825.2370    949.4918     1.366     1.328  86.10
      1310     696.8502     77.09412  20.9469   0.1201  6.26    104.9157   1417.5924     1.361     0.921 -18.94
      1311     2093.494      53.2686  19.7526   0.0276  3.50    443.5107    946.7420     1.495     1.299 -12.69
      1312     123.4984     32.76683  22.8256   0.2881  7.03   1179.3370   1415.2913     0.560     0.341 -42.53
      1313     150.3673     23.98286  22.6119   0.1732  3.85    792.4193   1385.2577     0.709     0.463  71.36
      1314     686.0428     49.92431  20.9639   0.0790  4.28   1101.6566   1396.0558     1.146     0.944  30.34
      1315     322.7911     57.09063  21.7825   0.1921  6.47   1246.3962   1404.0753     0.907     0.695 -20.90
      1316     155.9442      38.6712  22.5724   0.2693  7.82   1354.6598   1340.7007     0.565     0.339 -42.93
      1317     193.8507     42.90185  22.3361   0.2403  5.06    554.4716   1369.8762     0.916     0.671  35.50
      1318     2615.011     56.41498  19.5111   0.0234  3.81    328.1844   1405.3098     1.412     1.315 -56.70
      1319     245.2453     47.96572  22.0808   0.2124  5.47   1405.9266   1370.5249     1.056     0.647 -63.64
      1320     974.9404      97.3204  20.5823   0.1084  6.53   1343.4421   1402.1207     1.396     1.314  16.88
      1321     791.3911     87.35383  20.8088   0.1199  7.15     89.9198   1400.5552     1.384     0.887 -33.89
      1322     205.3419     41.07539  22.2736   0.2172  7.51    504.9969   1370.4985     0.798     0.313  32.09
      1323     279.7387     41.07539  21.9379   0.1595  4.64    774.9848   1406.0355     0.801     0.777 -63.00
      1324     1438.429     82.15079  20.1601   0.0620  4.62   1532.9336   1391.4183     1.808     1.479 -70.26
      1325     1261.928     72.21458  20.3022   0.0621  3.50    365.8502   1410.5427     3.064     1.142 -63.58
      1326     392.4908     59.07124  21.5702   0.1634  4.71    396.1588   1379.1125     1.364     0.961 -80.33
      1327     140.4899      38.6712  22.6857   0.2989  5.36    740.1464    952.1522     0.741     0.570  48.25
      1328     401.6494     47.96572  21.5452   0.1297  4.28     60.7284   1401.3542     1.066     0.953  35.24
      1329     199.5237     49.15024  22.3048   0.2675  7.67    779.1962   1394.3706     0.756     0.447  17.45
      1330     223.3399      48.7586  22.1824   0.2371  7.59    194.7525   1399.1526     0.973     0.346  44.70
      1331      3044043     106.3571  11.8462   0.0000  3.50   1158.5642   1365.6368     2.854     2.686 -60.77
      1332     13066.96     66.98049  17.7643   0.0056  3.50    711.6045   1389.3805     1.773     1.697  22.50
      1333     224.3098     29.69746  22.1777   0.1438  3.50      6.6123   1383.1211     0.877     0.686  20.73
      1334     130.4977     32.76683  22.7658   0.2727  7.02    879.3162   1395.9878     0.903     0.213  61.89
      1335     726.0682     65.53366  20.9023   0.0980  5.25   1100.9122   1387.9785     1.235     1.075  57.52
      1336     378.1074     45.08098  21.6107   0.1295  3.84   1047.4340   1381.7845     1.297     0.869  12.73
      1337      96645.2     305.9363  15.5918   0.0034  3.62   1133.8319   1358.5533    12.544     7.314 -89.83
      1338     143.3191      38.1722  22.6640   0.2892  7.81    409.6765   1395.6750     0.569     0.338 -45.07
      1339     1963.416     59.39492  19.8223   0.0329  4.01    805.0856   1387.8970     1.361     1.297  24.60
      1340     293.2571     57.09063  21.8867   0.2114  7.42    358.0317    960.6552     0.741     0.662  -6.28
      1341     44508.88     74.04972  16.4337   0.0018  3.50   1017.4412   1371.5277     1.993     1.844 -37.48
      1342     37685.89     66.69363  16.6143   0.0019  3.50   1427.0991   1387.8696     1.753     1.729  83.07
      1343     1855.652     88.87692  19.8835   0.0520  4.68   1272.4465   1384.7944     1.882     1.603  30.78
      1344     468.1689     47.56433  21.3788   0.1103  4.21     41.0191   1302.4027     1.096     0.950 -13.21
      1345     485.8009     54.68934  21.3386   0.1223  4.24    675.6942   1386.4103     1.299     1.046  44.82
      1346     244.9161     52.90745  22.0822   0.2346  6.07   1466.2700   1382.0789     1.018     0.622 -35.42
      1347     242.6511     32.76683  22.0923   0.1466  3.50   1020.0861   1388.3629     0.981     0.725  40.99
      1348      1515.22     72.21458  20.1036   0.0518  3.50    318.3208   1377.4731     2.692     1.286 -40.57
      1349     287.2895     54.68934  21.9090   0.2067  6.27   1321.0967   1367.3689     1.112     0.575  63.32
      1350     606.4686     67.83378  21.0978   0.1215  5.74    473.8195   1351.7587     1.230     0.951 -54.84
      1351     408.2146     47.56433  21.5276   0.1265  3.50    988.5744   1342.3936     1.636     0.914 -22.32
      1352     4390.617     88.22739  18.9485   0.0218  3.79    652.6671    949.7452     2.558     1.763  89.59
      1353     329.8052      64.9459  21.7591   0.2139  6.74   1525.5820    956.9374     1.007     0.742  13.91
      1354      115.617     23.16965  22.8972   0.2176  4.23     74.5266   1241.0356     0.821     0.304  58.70
      1355     610.9395     79.78283  21.0898   0.1418  7.86   1482.5720   1374.2148     1.129     0.767 -49.16
      1356     529.4402     41.99855  21.2452   0.0861  3.50   1028.0453    954.4810     1.290     0.933  27.11
      1357     160.7924     35.02921  22.5391   0.2366  7.43    866.6980    957.3326     0.563     0.340  46.59
      1358     133.9894       40.131  22.7371   0.3253  6.60    248.7533   1366.0077     0.683     0.431  89.61
      1359     137.3179     35.02921  22.7105   0.2770  7.00     15.5122   1101.5037     0.502     0.498 -46.09
      1360      138.898     36.63443  22.6980   0.2864  7.02   1468.5299   1310.5369     0.503     0.495  43.41
      1361     229.9213     29.04469  22.1508   0.1372  3.50    957.8734   1322.6027     0.872     0.686 -66.87
      1362     933.9116     57.75838  20.6290   0.0672  4.20    147.7944   1367.2697     1.354     1.163  46.15
      1363     242.5338     47.15952  22.0928   0.2112  5.29    865.9579   1375.4888     1.057     0.641  62.90
      1364     625.5218     60.98756  21.0642   0.1059  5.42    891.6690    958.5392     1.084     0.992   7.68
      1365     223.8567      38.6712  22.1799   0.1876  4.97    727.6893    958.0116     0.732     0.674 -78.85
      1366     841.3935     74.04972  20.7423   0.0956  5.05   1110.4159   1362.1769     1.866     0.973  71.12
      1367     309.3666     31.57491  21.8286   0.1108  3.50   1068.2986   1368.0780     0.958     0.737  17.77
      1368     1195.084     78.32771  20.3613   0.0712  4.29    842.8345   1305.2985     1.759     1.579 -15.62
      1369     128.0282       40.131  22.7865   0.3404  8.16   1558.3485   1351.3260     0.581     0.331 -44.08
      1370     334.2371     37.15409  21.7446   0.1207  3.50    860.5051   1282.7803     1.001     0.944 -12.72
      1371     1058.632     68.39673  20.4929   0.0702  4.97   1214.0437   1369.6688     1.296     1.202 -51.13
      1372     252.7054     35.02921  22.0482   0.1505  3.50    506.4632   1305.5349     0.904     0.877   0.03
      1373     833.8247     77.34241  20.7521   0.1007  5.07    572.8990   1305.6831     1.686     1.149 -19.17
      1374     227.1744      42.4526  22.1639   0.2029  4.92    360.9373   1364.6506     0.878     0.682 -67.63
      1375     984.8631     65.24044  20.5713   0.0719  4.10    389.0610   1361.9135     1.949     1.072 -23.65
      1376     157.2508     49.15024  22.5633   0.3394  6.81    817.8209   1343.8445     0.769     0.567  47.71
      1377     160.6145     41.53954  22.5403   0.2809  6.42    194.0172   1307.9896     0.608     0.605   2.83
      1378     725.4515      58.4185  20.9033   0.0875  3.79   1383.3190   1384.4357     1.836     1.077  -7.50
      1379     415.2327     39.78649  21.5091   0.1041  5.79    844.9771   1299.1058     1.340     0.739 -11.65
      1380     422.6525     45.08098  21.4898   0.1158  4.29    705.2311   1369.7698     1.058     0.868  37.09
      1381     282.6992     45.50428  21.9265   0.1748  5.18   1306.4999   1306.0009     0.974     0.661 -28.82
      1382     412.5053     37.15409  21.5162   0.0978  3.50   1242.1279   1359.6393     0.988     0.919 -35.68
      1383     338.5196     49.15024  21.7308   0.1577  5.05   1598.3820   1345.4065     1.187     0.891 -26.52
      1384      170.406     25.53171  22.4761   0.1627  3.50   1068.6482   1350.5256     0.857     0.477 -88.82
      1385     138.7972     37.15409  22.6988   0.2907  7.59   1046.6494   1362.3031     0.571     0.336  42.79
      1386     632.2331     80.50053  21.0526   0.1383  8.06    285.9464   1346.1530     1.233     0.673 -50.23
      1387     3903.777     57.42548  19.0761   0.0160  3.50    891.4208   1303.7214     1.620     1.426 -39.46
      1388     146.4366     37.15409  22.6407   0.2755  6.18    534.2222    958.7106     0.826     0.352 -72.77
      1389     177.5107     24.76939  22.4317   0.1515  3.50    408.0468   1360.5062     0.788     0.500  -0.40
      1390     133.2876     26.27191  22.7428   0.2141  3.50    777.9946   1362.3539     0.711     0.666  -7.97
      1391     257.0556     41.99855  22.0297   0.1774  4.88    410.2550   1303.8998     0.918     0.666  21.12
      1392     256.4402     44.22221  22.0323   0.1873  4.79    755.4340   1323.9901     1.042     0.659  28.22
      1393     303.2796     62.53965  21.8502   0.2239  7.42   1421.2281   1304.9838     0.979     0.600 -24.02
      1394     994.3664      97.3204  20.5609   0.1063  5.75    525.1740   1361.8893     2.088     1.148 -83.59
      1395     201.5405     44.22221  22.2939   0.2383  6.14     85.8172   1349.9794     0.927     0.472 -52.32
      1396     640.1066     96.72758  21.0392   0.1641  7.15    975.2894   1308.5092     1.583     0.960  52.95
      1397     378.2012     49.92431  21.6105   0.1434  4.17    295.4702   1308.3257     1.154     1.013  77.18
      1398     675.2068     71.94859  20.9812   0.1157  5.64   1502.8433    952.4551     1.279     1.050 -53.73
      1399     1658.326     56.41498  20.0056   0.0369  3.50    603.6622   1345.2611     1.575     1.369 -64.80
      1400     259.7867     32.76683  22.0182   0.1370  3.50    793.1554   1307.1511     0.979     0.778 -45.74
      1401     156.5368     30.33619  22.5682   0.2105  4.58   1076.5256   1307.9508     0.759     0.498 -86.65
      1402      151.328      38.1722  22.6050   0.2739  5.95    966.4289   1343.2323     0.725     0.461  71.21
      1403     268.5891     33.34682  21.9821   0.1348  3.50    965.5396   1351.7572     0.905     0.825  19.83
      1404     354.9486     60.03705  21.6794   0.1837  7.40    266.5803   1387.6110     1.218     0.451   9.38
      1405     284.6973     63.14981  21.9188   0.2409  6.37   1553.4230   1322.7460     1.653     0.487  87.06
      1406     166.5181     47.15952  22.5011   0.3076  7.32    189.6185   1317.2012     0.766     0.446 -72.04
      1407     869.5211      64.9459  20.7066   0.0811  4.83    192.7114   1345.9578     1.270     1.212  10.64
      1408     218.9421     46.75121  22.2040   0.2319  8.31     41.0000   1344.9344     0.862     0.289  90.00
      1409     328.4622      53.2686  21.7636   0.1761  8.40   1559.2125   1327.6061     0.773     0.441 -19.36
      1410     573.4332     63.14981  21.1586   0.1196  4.60   1232.9033   1186.0751     1.344     1.191  57.36
      1411     18269.46     78.95847  17.4005   0.0047  3.50    654.2343   1328.8937     1.963     1.761  12.84
      1412     158136.8     115.7536  15.0572   0.0008  3.50    658.3565   1318.9799     2.006     1.917  12.01
      1413     206.1382     52.54382  22.2694   0.2768  7.26   1207.4775   1344.3491     0.905     0.477   0.64
      1414     174.5578     30.33619  22.4499   0.1887  3.71    218.8412    953.5809     0.880     0.615  78.63
      1415     168.8447     49.15024  22.4861   0.3161  6.91   1464.1814   1243.1752     0.755     0.563  44.90
      1416     327.3569     54.68934  21.7672   0.1814  5.54    582.4810   1325.4730     0.911     0.887 -30.77
      1417     2546.594      58.4185  19.5399   0.0249  3.61    385.3082   1329.3423     1.555     1.388  10.12
      1418     171.6099     35.02921  22.4684   0.2217  7.43     16.6861   1384.6757     0.565     0.340 -45.53
      1419     577.8896     70.33156  21.1502   0.1322  7.38   1184.7740   1330.8823     1.006     0.750  14.71
      1420     2877.236     103.3162  19.4073   0.0390  4.48    427.7047   1091.9078     2.816     2.270  52.48
      1421     431.6904     66.69363  21.4669   0.1678  5.86    269.9108   1310.6497     1.175     0.903 -19.67
      1422     325.9035     51.80891  21.7721   0.1726  5.07   1355.5078   1315.9100     1.013     0.855  16.97
      1423     210.6103     31.57491  22.2461   0.1628  3.72   1138.5015   1301.0056     0.843     0.672   1.32
      1424     114.5806     22.32683  22.9070   0.2116  3.50    237.1928   1326.6298     0.730     0.449 -17.92
      1425     92.76991     24.76939  23.1363   0.2900  5.13    818.6284   1328.3103     0.583     0.329  42.58
      1426     1359.147     59.71685  20.2216   0.0477  3.50     59.9691    951.1249     1.571     1.520 -44.28
      1427     4409.825     56.75381  18.9437   0.0140  3.50    105.6457   1331.6635     1.510     1.453 -12.98
      1428     431.3316     60.67238  21.4678   0.1528  5.34    493.0060   1325.8948     1.251     0.845   8.55
      1429     242.1246      42.4526  22.0947   0.1904  4.70   1533.2522   1323.9624     0.904     0.755  -2.10
      1430     855.1252     91.84737  20.7247   0.1166  6.24   1478.7284   1338.6438     1.558     1.156 -66.87
      1431     470.9272     66.69363  21.3724   0.1538  5.87   1117.4929   1327.9922     1.093     0.954  79.74
      1432     1252.272      104.905  20.3105   0.0910  5.81    998.2313   1311.9595     1.748     1.543  19.08
      1433      144.556     24.76939  22.6547   0.1861  4.89   1568.5410   1309.5027     0.502     0.497  54.73
      1434     211.6145     44.65366  22.2409   0.2292  7.96     46.4904   1334.5214     0.502     0.498 -42.30
      1435     1497.406     105.6336  20.1164   0.0766  6.13    631.9846   1324.1094     2.237     1.107  10.52
      1436     106.6682     32.17639  22.9847   0.3276  6.45   1583.6538   1310.6748     0.579     0.332 -44.13
      1437     3256.768     60.67238  19.2728   0.0202  3.85    262.3768   1318.2977     1.469     1.420 -57.44
      1438     361.8905     60.35555  21.6583   0.1811  6.60    990.9398   1314.9690     1.202     0.586 -64.23
      1439     280.3412      42.4526  21.9356   0.1645  4.34    800.3294   1313.9464     1.183     0.669  14.28
      1440     161.3521     44.22221  22.5353   0.2976  6.99    525.3943    970.2296     0.754     0.452  72.04
      1441     454.4901     60.98756  21.4110   0.1457  8.38   1503.9709   1313.8256     0.963     0.466  36.17
      1442     1079.827      97.3204  20.4714   0.0979  6.27    937.3761   1301.7825     1.846     1.074  83.87
      1443     626.8454     57.09063  21.0619   0.0989  4.67   1567.6553   1282.0957     1.163     1.043 -48.53
      1444     14182.73     101.7507  17.6754   0.0078  3.50   1034.6488   1306.6073     3.026     2.342 -39.63
      1445     77.52799     15.16809  23.3311   0.2125  3.50    810.3108   1317.6792     0.562     0.341  45.53
      1446     975953.9     97.12319  13.0812   0.0001  3.50    723.3129   1297.3184     2.833     2.273 -20.41
      1447     4514.076     54.68934  18.9184   0.0132  3.50    671.1867   1241.5464     1.432     1.404  11.38
      1448     459.6438     57.42548  21.3987   0.1357  4.79   1132.9706   1314.2695     1.117     1.075  42.95
      1449     134.9203     24.76939  22.7296   0.1994  3.50    553.9938   1315.5146     1.212     0.339 -49.86
      1450     15539.24     82.53124  17.5762   0.0058  3.50    668.0394   1306.4852     2.095     1.795 -53.28
      1451     247.2273     44.65366  22.0720   0.1962  4.43   1423.8390   1274.2390     1.678     0.517  51.13
      1452     179.0709     49.15024  22.4222   0.2981  7.62    934.5699    966.2054     0.762     0.444 -69.28
      1453     265.5892     51.43751  21.9943   0.2103  6.80    869.3532   1341.0322     0.732     0.665 -82.10
      1454     228.4289     44.65366  22.1579   0.2123  7.50   1475.2428   1324.7562     0.855     0.349 -18.68
      1455     1726.448     61.92348  19.9619   0.0390  3.57    696.4501   1272.7631     1.605     1.554 -38.14
      1456     176.2222     45.50428  22.4396   0.2804  7.70    369.0164   1249.2169     0.713     0.412  -0.60
      1457     214.0204     41.53954  22.2286   0.2108  8.69    909.6688   1258.7007     0.561     0.341 -43.30
      1458     214.3569     39.16385  22.2269   0.1984  4.76   1119.3219   1310.6492     0.957     0.580  69.02
      1459     4671.984     59.71685  18.8810   0.0139  3.50    411.0460   1291.6042     1.616     1.478  49.82
      1460     119.1837       40.131  22.8642   0.3657  8.30     17.3502   1289.3051     0.572     0.336 -42.91
      1461     155.5208     29.69746  22.5753   0.2074  4.01   1085.0038   1299.2596     0.708     0.674   9.55
      1462     464.6728     72.47958  21.3869   0.1694  7.79   1172.4913   1302.2130     0.981     0.733   2.56
      1463     97.59665     21.45092  23.0812   0.2387  4.16    676.6387   1219.3152     0.581     0.330  43.12
      1464     1450.977     65.24044  20.1506   0.0488  4.51    544.1321   1290.6614     1.396     1.228 -14.01
      1465     127.9377     41.07539  22.7873   0.3487  7.43   1345.0026    952.5225     0.770     0.322 -33.09
      1466     1600.816     55.38605  20.0439   0.0376  3.87     52.2358   1298.2540     1.347     1.254  -3.11
      1467     36276.88     81.68269  16.6557   0.0024  3.50    760.6154   1290.3920     2.410     1.863 -28.54
      1468     409.8253      38.6712  21.5233   0.1025  3.50    274.7895   1124.3517     1.102     0.906   5.71
      1469      83.0942     15.16809  23.2559   0.1982  3.50   1459.6740   1287.6841     0.567     0.339 -44.50
      1470     159.7861     29.69746  22.5459   0.2018  4.95   1212.3036    963.5641     0.709     0.465 -18.77
      1471     154.0376     26.99182  22.5857   0.1903  4.01   1554.0720   1258.9600     0.880     0.525 -45.39
      1472     483.7507     41.99855  21.3432   0.0943  3.50   1089.9497   1292.7142     1.210     0.978  27.31
      1473     2070.647     60.35555  19.7645   0.0317  4.05    414.7297    964.0786     1.415     1.301 -27.24
      1474     608.7996     51.99702  21.0936   0.0928  4.76    422.3735    962.8117     1.371     1.060  22.67
      1475     69990.98     143.2294  15.9422   0.0022  3.50    608.2322   1271.8289     4.945     2.805 -56.88
      1476      790.189     60.67238  20.8105   0.0834  4.35    230.9910   1171.6465     1.357     1.175 -81.90
      1477     114.3812     27.69302  22.9089   0.2629  4.60    636.0064    984.7509     0.677     0.432   0.34
      1478     126.4909     32.76683  22.7996   0.2813  6.07   1598.4816   1115.5090     0.515     0.484 -45.24
      1479     784.9057     52.17766  20.8177   0.0722  4.12    341.9402   1276.5608     1.168     1.119  86.71
      1480     410.5518      64.9459  21.5214   0.1718  6.60    335.4875   1283.9626     1.019     0.777   3.62
      1481     117.4819     29.04469  22.8799   0.2685  4.76     85.7666   1275.7561     0.841     0.346  71.51
      1482     82705.59     72.21458  15.7609   0.0009  3.50    181.7502   1128.9283     1.901     1.855 -73.63
      1483     895.6981     46.33929  20.6744   0.0562  3.50   1153.2976   1018.5634     1.266     1.134   4.53
      1484     420.7695     47.15952  21.4947   0.1217  3.50    575.0988   1152.3866     1.496     0.987  -6.13
      1485     16692.59     63.75413  17.4985   0.0041  3.50    806.2863   1264.4093     1.661     1.643 -48.94
      1486     248.6528     51.06342  22.0658   0.2230  6.59    386.3265   1152.3599     0.898     0.517 -44.51
      1487      21533.3     70.33156  17.2220   0.0035  3.50   1329.9435   1277.2839     1.962     1.708  85.39
      1488     279.9194      38.1722  21.9372   0.1481  3.58   1301.7472    951.2686     1.093     0.854 -80.04
      1489     2184.044     51.80891  19.7066   0.0258  3.50     46.4834   1236.6620     1.358     1.316  13.37
      1490     195.0669     42.90185  22.3293   0.2388  6.13    786.4891   1247.9899     0.800     0.496  84.22
      1491     265.5326     60.67238  21.9945   0.2481  7.39     49.7338   1254.7166     1.044     0.545  54.76
      1492     217.4534     54.33764  22.2114   0.2714  8.49    315.7849   1151.5874     0.775     0.441  20.10
      1493     195.1116     33.91689  22.3291   0.1888  5.03    732.0148   1217.4919     0.772     0.500   1.09
      1494     248.5852     35.02921  22.0661   0.1530  3.50   1537.5083   1243.5387     0.907     0.870 -21.20
      1495     285.2601     47.96572  21.9167   0.1826  8.86   1376.4954   1262.5227     0.502     0.497  42.34
      1496     158.1717     52.54382  22.5570   0.3608  7.50    677.7966   1269.2192     0.746     0.561 -48.06
      1497     261.0346     49.53879  22.0130   0.2061  6.87   1106.8608   1252.1877     0.743     0.563 -40.32
      1498     159453.2      77.5899  15.0482   0.0005  3.50    146.3122   1137.4650     2.051     1.989 -51.80
      1499     1928.406     57.75838  19.8418   0.0325  3.81    853.7980   1261.1042     1.497     1.256 -63.94
      1500     415.4958     44.22221  21.5084   0.1156  3.50   1087.1940   1252.8649     1.589     0.837  88.40
      1501     3637.945     161.9509  19.1526   0.0483  7.31    913.8792   1227.5438     2.355     1.723 -39.88
      1502     251.2561     30.33619  22.0545   0.1311  3.50   1225.0229   1266.5009     1.048     0.646  62.93
      1503      193.805     47.56433  22.3364   0.2665  5.49   1083.7261   1235.3806     0.962     0.629 -17.13
      1504     943.3174     55.73114  20.6181   0.0642  4.32    612.2346   1243.0367     1.294     1.088   8.56
      1505     310.5345     46.75121  21.8245   0.1635  4.68    786.2460   1256.2537     0.978     0.880  16.09
      1506     454.2073     68.11584  21.4116   0.1629  8.88    390.7827   1020.3267     0.737     0.652  58.34
      1507      3733857     280.8488  11.6244   0.0001  3.50    993.4514   1220.4805     7.578     7.068 -35.65
      1508     5685.092     73.79035  18.6679   0.0141  3.50   1440.7517   1200.0386     2.047     1.834  61.71
      1509     5806.599     127.5083  18.6450   0.0238  4.54    597.1962   1228.8689     2.691     2.439  16.04
      1510      3132163     118.7898  11.8152   0.0000  3.50    692.2085   1150.7126     3.256     2.946 -31.50
      1511     133.1374     32.76683  22.7440   0.2673  7.04   1403.3175   1232.6750     0.567     0.339  45.37
      1512      256.512     37.15409  22.0320   0.1573  3.50    804.6119   1179.2593     0.990     0.957 -14.65
      1513     242.5994     33.34682  22.0926   0.1493  3.50    820.3019   1213.8909     1.047     0.739 -14.44
      1514      75099.2     73.26886  15.8657   0.0011  3.50    511.3412   1213.5670     1.910     1.886 -66.71
      1515     49149.21     80.73835  16.3260   0.0018  3.50   1193.4814   1218.0364     2.206     2.017  60.77
      1516     1153.305     47.46818  20.3999   0.0447  4.49   1429.9238   1220.3369     1.394     1.338 -37.83
      1517     209.1198     46.75121  22.2538   0.2428  6.47      9.8353   1225.8464     0.742     0.575  44.21
      1518     144.8599     39.16385  22.6524   0.2936  5.32    624.0275   1210.1749     0.944     0.466 -36.50
      1519     205.9327     43.34644  22.2705   0.2286  6.21    616.8416   1203.8213     0.733     0.568  47.16
      1520     412.7689      53.7975  21.5155   0.1415  5.71    167.0034   1227.8472     1.560     0.782 -24.55
      1521        77034     190.7605  15.8381   0.0027  3.50   1277.5015   1209.7540     6.341     3.868  80.00
      1522     8433.827     100.2464  18.2397   0.0129  3.67   1427.9127   1211.8522     3.132     2.546  78.52
      1523     165.7112     26.99182  22.5064   0.1769  3.50     96.7649   1254.0377     0.725     0.684  85.77
      1524     397.1324     59.07124  21.5574   0.1615  5.57    390.0359   1185.0813     1.223     0.756  -7.69
      1525     221.0083     28.37691  22.1938   0.1394  3.50   1266.9092   1077.1671     0.821     0.682  38.61
      1526     455.0461     41.99855  21.4096   0.1002  3.50   1332.1019   1195.8751     1.145     1.071   8.63
      1527     1081.246     57.50025  20.4700   0.0578  4.06    827.6581   1209.7373     1.640     1.300   8.96
      1528     690.0797     93.91161  20.9575   0.1478  6.96   1319.6135   1266.9464     1.360     1.099  72.84
      1529     10201.94     108.3219  18.0331   0.0115  3.68    122.6135   1193.9640     3.008     2.406 -61.49
      1530     445.4442     74.04972  21.4328   0.1805  7.11     73.5708   1219.6304     1.035     0.875  30.78
      1531     1492.956     52.54382  20.1197   0.0382  4.24   1598.6893   1166.0304     1.547     1.112  81.82
      1532     275.6379     44.22221  21.9539   0.1742  4.48   1453.4847   1208.4546     0.924     0.844 -81.83
      1533     527.4186     62.27143  21.2494   0.1282  6.94    928.5026   1191.4052     1.438     0.947 -63.90
      1534     8450.646     62.53965  18.2376   0.0080  3.50    837.2482   1206.7312     1.682     1.597 -35.51
      1535     1237.991     55.73114  20.3230   0.0489  4.13   1215.9742   1203.3840     1.354     1.140 -87.19
      1536      1151.86     56.75381  20.4013   0.0535  3.50   1414.4109   1209.5161     1.703     1.292  14.92
      1537     4956.255     77.09412  18.8169   0.0169  3.65   1351.5361   1152.6691     1.987     1.858 -11.34
      1538     1577.558     66.11619  20.0598   0.0455  3.84    768.3550   1144.4679     1.835     1.312 -62.77
      1539     721.4079     69.23256  20.9093   0.1042  4.36   1337.3462   1144.5658     2.300     0.901 -26.88
      1540     239.9209     39.65038  22.1046   0.1795  4.10    897.4044   1207.5533     0.946     0.819  71.79
      1541     6926.449     62.53965  18.4535   0.0098  3.50     97.7062   1150.0941     1.658     1.573   3.71
      1542     366.0029     40.60595  21.6461   0.1205  3.87    793.2299   1145.5649     0.979     0.909 -55.03
      1543     316.0618     34.47754  21.8054   0.1185  3.50    721.4222   1205.6654     1.093     0.774  38.69
      1544      224.926      38.1722  22.1747   0.1843  5.58    325.9575   1145.5081     0.786     0.500   0.38
      1545     8121.039     61.92348  18.2808   0.0083  3.50    337.4243   1200.7379     1.617     1.598  69.68
      1546     1224.429     62.23233  20.3349   0.0552  3.91    565.7645   1155.0439     1.619     1.299 -80.30
      1547     948.8091     82.15079  20.6118   0.0940  6.21    969.3352   1156.7579     1.341     1.073 -30.97
      1548     134.1729     32.17639  22.7356   0.2604  5.83   1400.5101   1222.4689     0.502     0.497 -38.94
      1549     77.67194     21.45092  23.3291   0.2999  5.00    543.6995   1227.6693     0.562     0.341 -46.61
      1550     544.7376     51.37653  21.2143   0.1024  6.18   1306.8057   1178.5343     1.632     0.958  25.30
      1551     1036.582     107.2546  20.5158   0.1124  7.90   1062.1370   1173.7518     1.324     1.153  82.86
      1552     1858.958     59.71685  19.8816   0.0349  3.56    606.0450   1133.0031     1.647     1.398  31.38
      1553     262.7524     55.38605  22.0059   0.2289  5.39    394.6606   1207.6230     1.004     0.868  49.98
      1554     193.0667     36.63443  22.3405   0.2061  5.07   1238.8062   1215.2026     0.746     0.565 -42.88
      1555      215.679     30.96174  22.2203   0.1559  3.50    249.1822   1134.4489     0.884     0.740 -16.79
      1556     801.9462     47.56433  20.7944   0.0644  3.94    312.2459   1184.1804     1.155     1.064  19.36
      1557     302.7811     37.15409  21.8520   0.1333  3.50   1199.2716   1196.2405     1.119     0.836  54.07
      1558     8884.357     91.42893  18.1832   0.0112  3.70   1074.0184   1202.2426     2.524     2.003  38.30
      1559     163.5181     37.15409  22.5209   0.2468  7.69    703.3208   1190.6542     0.577     0.333  46.07
      1560     188.4435     49.53879  22.3668   0.2855  7.73    349.4030   1187.1738     0.760     0.446  70.60
      1561     179.4942     28.37691  22.4197   0.1717  3.50    852.7082   1187.1277     1.071     0.510  21.28
      1562     7461.942     98.49533  18.3727   0.0143  3.50    430.8773   1258.4576     2.642     2.488 -32.67
      1563     794.7256     59.07124  20.8042   0.0807  3.55     17.6537   1176.0688     1.855     1.251  -6.16
      1564     323.5486     57.75838  21.7799   0.1939  5.90   1420.0262   1192.5284     1.020     0.781 -89.67
      1565      77.3112     19.68343  23.3342   0.2765  6.86    649.6403   1164.7109     0.568     0.336 -41.60
      1566      128.927     30.33619  22.7789   0.2555  4.77    138.2019   1263.5703     0.765     0.446 -20.31
      1567     393.8089     48.36379  21.5666   0.1334  4.26    410.9288   1197.2059     1.066     0.954  35.88
      1568     241.2475     32.76683  22.0986   0.1475  3.50   1131.6002   1185.9591     0.975     0.733  50.00
      1569     658.2843     52.17766  21.0087   0.0861  3.71    350.0568   1155.5911     1.362     1.183  79.90
      1570     2079.244     127.5083  19.7600   0.0666  7.93    935.0558   1187.6375     1.646     1.303  45.87
      1571     118.1676     35.02921  22.8735   0.3219  5.95    525.4827   1171.5063     0.504     0.495 -45.86
      1572     1349.249     106.5372  20.2296   0.0858  6.29    739.7286   1121.1879     1.631     1.460  51.67
      1573     870.2292     43.78652  20.7057   0.0546  3.55   1597.3324   1175.9955     1.188     1.131  19.63
      1574     154.0149     35.02921  22.5859   0.2470  6.52   1159.5128   1177.5093     0.503     0.497 -45.34
      1575      13780.4     62.23233  17.7066   0.0049  3.50    303.1471   1233.2994     1.658     1.614  27.17
      1576     39152.38      160.524  16.5729   0.0045  3.62    756.0684   1171.4982     4.088     4.000  -1.26
      1577     107.1495     32.17639  22.9798   0.3261  6.72    428.3571   1164.7078     0.568     0.336  41.89
      1578     843.6846     77.83662  20.7393   0.1002  5.36   1402.4183   1179.3534     1.357     1.280 -23.47
      1579     12232.58     100.9941  17.8360   0.0090  3.50    328.0380   1119.2484     3.359     2.052  59.87
      1580     252.6711      56.0741  22.0484   0.2410  7.73   1548.1626   1173.8107     0.762     0.570 -47.01
      1581     364.0177     52.90745  21.6520   0.1578  4.63   1123.9612   1154.1046     1.291     0.854  -0.97
      1582     123.6009     32.17639  22.8247   0.2827  6.99   1579.3285   1164.3241     0.571     0.337 -44.80
      1583     199.4392     47.96572  22.3053   0.2612  8.97   1567.5021   1160.5090     0.506     0.493 -44.83
      1584     649.3285     83.76854  21.0236   0.1401  5.84    638.6381   1166.3933     1.455     1.168  17.16
      1585     1672.565     76.59512  19.9963   0.0497  3.76    855.8080   1237.6556     2.424     1.422 -71.85
      1586     256292.8     78.81573  14.5329   0.0003  3.50   1298.2325   1164.2944     2.091     2.009 -51.31
      1587      199.825       40.131  22.3032   0.2181  5.14   1175.4263   1169.8557     0.868     0.607 -10.46
      1588     29319.79     68.11584  16.8869   0.0025  3.50    234.6754   1156.7523     1.797     1.775 -68.72
      1589     1068.636     47.56433  20.4827   0.0483  3.50    214.3992   1261.3075     1.276     1.184 -19.20
      1590     1996.019     50.68656  19.8044   0.0276  3.50   1152.1398   1227.8481     1.360     1.297 -13.56
      1591     163.1556     25.53171  22.5233   0.1699  3.84    619.5096   1125.9303     0.769     0.499 -87.49
      1592     136.1969     44.65366  22.7194   0.3561  8.05   1185.4884   1158.5374     0.507     0.491 -42.82
      1593     249.7222     33.91689  22.0611   0.1475  4.95      1.9890   1161.1925     0.826     0.646 -41.05
      1594     177.4022     37.15409  22.4324   0.2274  7.61    852.6744   1101.6675     0.574     0.335 -45.31
      1595     3087.385     57.09063  19.3308   0.0201  3.51    886.2676   1160.8608     1.609     1.370  27.14
      1596     565.4363     84.22504  21.1738   0.1618  7.55     49.4502   1158.6328     1.358     0.753 -81.58
      1597     216.6812     44.65366  22.2152   0.2238  8.46    797.4980   1165.5004     0.500     0.500  45.14
      1598     134.1273     30.96174  22.7360   0.2507  6.25    888.3445   1151.3083     0.571     0.336 -43.31
      1599      484.852     54.33764  21.3408   0.1217  4.72    828.7656   1222.1228     1.082     1.043 -52.55
      1600     909.9858     89.30732  20.6572   0.1066  5.43    184.3624   1157.0623     1.568     1.413 -48.59
      1601     286.0608     63.14981  21.9136   0.2397  8.56   1028.3109   1140.2389     1.114     0.403 -77.35
      1602     544.7009     53.62731  21.2144   0.1069  4.30    503.1929   1128.7419     1.142     1.098 -39.01
      1603     289.0322     57.42548  21.9024   0.2158  6.15    179.1811   1230.5432     1.004     0.712  89.06
      1604     120.5457     21.45092  22.8519   0.1933  3.50   1430.6129   1142.1930     0.776     0.440 -70.88
      1605     840.1487     68.67647  20.7439   0.0888  5.34    110.8722   1146.7512     1.229     1.111  28.97
      1606     201.4447     28.37691  22.2944   0.1530  3.50    766.1781   1234.1243     0.828     0.664 -46.54
      1607     112.3694     28.37691  22.9282   0.2743  5.98    883.3152   1137.6770     0.565     0.340  45.40
      1608     2857.374     55.73114  19.4149   0.0212  3.50    547.8670   1179.8853     1.501     1.408 -84.54
      1609     3575.067     102.3144  19.1716   0.0311  4.29    120.3551   1036.8999     2.868     1.637 -36.77
      1610     526.6375     62.14913  21.2510   0.1282  3.92    166.7147   1223.8450     1.830     0.974 -40.19
      1611     450.5423     66.69363  21.4204   0.1608  5.47    423.7051   1139.2693     1.553     0.798  49.46
      1612     3219.708     57.42548  19.2852   0.0194  3.50    545.7699   1128.2924     1.619     1.370 -78.04
      1613     241.3455     52.17766  22.0982   0.2348  6.47   1421.7471   1134.8191     0.875     0.597 -60.13
      1614      497.064     66.11619  21.3137   0.1445  6.22    164.5899   1125.2627     0.963     0.956  -1.58
      1615     331.0402     58.08938  21.7551   0.1906  8.38    467.9973   1131.4962     0.779     0.500  -0.20
      1616      100.634     29.69746  23.0479   0.3205  6.14    257.3156   1133.2939     0.552     0.345 -43.70
      1617     1362.575     60.03705  20.2189   0.0479  4.01    357.6904   1130.1014     1.513     1.226 -12.40
      1618     359.8766      48.7586  21.6644   0.1471  4.07    916.5781   1121.8481     1.152     1.004  30.79
      1619     398.8171     60.67238  21.5528   0.1652  5.06    403.3063   1223.9612     1.327     0.880 -70.26
      1620      3243.38     63.14981  19.2773   0.0211  3.50    217.8392   1129.1641     1.747     1.518   4.46
      1621     597.3754     46.75121  21.1142   0.0850  3.50    836.1541   1127.0887     1.277     1.159  82.88
      1622     445.1224     47.96572  21.4336   0.1170  4.19   1143.2687   1129.1813     1.159     0.932 -65.76
      1623     495.2895     41.07539  21.3176   0.0901  3.50    206.4799   1172.4443     1.193     0.960  -1.22
      1624      8372.84     63.75413  18.2476   0.0083  3.50   1552.1648   1236.1111     1.739     1.583 -74.34
      1625     167.5634       40.131  22.4943   0.2601  8.31   1400.3396   1136.6820     0.573     0.335  44.02
      1626     1357.371       112.83  20.2230   0.0903  7.06    872.1906   1128.5886     1.720     1.233  37.12
      1627     348.7812     58.08938  21.6984   0.1809  8.15    444.4957   1123.5015     0.976     0.413 -71.41
      1628     561.2556     47.56433  21.1819   0.0920  3.50    638.3307   1119.8063     1.519     1.002  24.03
      1629     9366.053     155.0562  18.1259   0.0180  4.35    477.9356   1110.1544     3.893     2.702  15.14
      1630     2776.487     59.63134  19.4460   0.0233  4.31    672.7038   1113.0934     1.647     1.448 -35.40
      1631     34729.83     69.23256  16.7030   0.0022  3.50    426.3414   1106.4467     1.836     1.807 -23.85
      1632     238.8127     53.98364  22.1096   0.2455  6.63     15.8695   1111.5508     0.888     0.616  80.54
      1633     513.6634     72.47958  21.2781   0.1532  6.42    506.4273   1114.7576     1.354     0.781 -36.48
      1634     4835.662     126.9054  18.8436   0.0285  4.98    677.1589   1104.6254     2.662     2.021  50.23
      1635     661.5792     41.99855  21.0033   0.0689  3.51   1265.7961   1105.9490     1.153     1.071 -48.41
      1636     693.3679     73.79035  20.9524   0.1156  5.12    756.7880   1123.3517     1.715     0.989 -58.77
      1637     1090.378     95.93145  20.4608   0.0955  6.29    663.3728   1116.4435     1.933     0.998 -52.38
      1638     1629.226     49.53879  20.0248   0.0330  3.50    174.6060   1180.6862     1.334     1.241  23.46
      1639     1536.257      106.717  20.0886   0.0754  8.43    929.2453   1217.3624     1.276     1.040  75.83
      1640     478.8708     73.26886  21.3542   0.1662  7.30    965.2163   1115.7031     1.183     0.706  11.19
      1641     1178.706     68.39673  20.3763   0.0630  3.50   1169.2045   1115.5244     2.121     1.462 -31.17
      1642     900.5881     82.84798  20.6685   0.0999  6.29   1122.0214   1107.8478     1.201     1.190 -64.41
      1643     577.0008     60.35555  21.1518   0.1136  3.95    625.3510   1103.3448     1.844     1.062 -84.11
      1644     53946.56     72.21458  16.2249   0.0015  3.50    750.2354   1103.5187     1.897     1.852 -59.49
      1645     4461.976     55.38605  18.9310   0.0135  3.50   1525.1785   1094.6240     1.474     1.370 -13.64
      1646      152.381     35.57233  22.5975   0.2535  4.83    397.0229   1126.8699     0.945     0.459  36.28
      1647     170.1693     37.66658  22.4776   0.2404  7.68   1424.3018   1105.6600     0.566     0.339  46.91
      1648     674.9435     80.02278  20.9816   0.1288  6.30    969.5953   1107.4812     1.405     0.965 -43.26
      1649     671.7461     75.84047  20.9868   0.1226  5.43    251.3280   1174.8463     1.580     1.030  10.87
      1650     100.8308     28.37691  23.0458   0.3056  6.01    990.3127   1101.3265     0.565     0.340 -45.70
      1651      117.205     39.65038  22.8824   0.3674  8.02    285.3276   1279.6857     0.566     0.339  44.34
      1652     151.4772     26.99182  22.6039   0.1935  3.50     85.9943   1092.2001     0.707     0.659   4.28
      1653     304.3139     49.92431  21.8465   0.1782  7.23   1597.8467   1075.2793     0.858     0.604  28.12
      1654     153457.7     77.34241  15.0898   0.0005  3.50    776.4799   1093.8275     2.014     1.980  82.49
      1655     990.2086     111.1177  20.5655   0.1219  6.70    111.7978   1100.4452     2.007     1.144  29.44
      1656     1606.004     52.90745  20.0404   0.0358  3.77   1134.8083   1093.6829     1.334     1.243  15.15
      1657      375.541     55.38605  21.6181   0.1602  4.96   1350.6543   1100.3503     1.051     0.974  56.59
      1658     350.1882     52.17766  21.6940   0.1618  5.31    861.5237   1098.0021     1.022     0.778   6.78
      1659     210.6737     48.36379  22.2458   0.2493  6.63     58.1850   1095.0188     0.933     0.464 -52.23
      1660     346.5174     37.66658  21.7055   0.1180  3.50     70.3411    975.5507     1.141     0.844 -30.24
      1661     168680.8     76.09285  14.9871   0.0005  3.50    510.4664   1079.0319     2.003     1.964 -35.16
      1662     507.7416     80.50053  21.2907   0.1722  6.27    125.5481   1019.2272     1.497     0.900 -24.02
      1663     11698.14     118.4666  17.8845   0.0110  3.84   1217.4851   1071.1305     3.272     2.407 -71.99
      1664     307.5572     60.35555  21.8350   0.2131  6.37    968.0463   1090.6294     0.996     0.746 -39.99
      1665     367.9986     39.16385  21.6402   0.1156  3.63   1010.4702   1086.4301     1.105     0.850 -69.22
      1666     225.6737     44.22221  22.1711   0.2128  5.21   1231.7394   1078.7620     0.934     0.621  -5.30
      1667     328.2824     53.62731  21.7642   0.1774  5.24    457.5043   1087.2594     1.098     0.802  23.94
      1668     4284.424     91.21899  18.9750   0.0231  3.70    466.4900   1089.8928     3.136     1.587 -60.90
      1669     1732.122     61.92348  19.9583   0.0388  3.51   1451.4796   1085.4679     1.806     1.428  67.34
      1670     48956.46     71.68162  16.3303   0.0016  3.50   1146.6746   1080.8347     1.896     1.841  85.98
      1671     15560.87     63.45269  17.5747   0.0044  3.50    640.8257   1088.2058     1.674     1.633  64.29
      1672     2795.452     50.30688  19.4387   0.0195  3.50      5.1792   1072.2399     1.361     1.306   3.13
      1673     171.1126       40.131  22.4716   0.2547  6.78   1108.0090   1094.7705     0.679     0.420   0.42
      1674     704.2166     59.39492  20.9355   0.0916  4.14    199.5090   1016.3101     1.340     1.312 -45.21
      1675       812.73     50.68656  20.7799   0.0677  4.00    920.8304   1078.1138     1.199     1.146  48.27
      1676     451.5008     51.80891  21.4181   0.1246  4.27    467.1946   1077.1652     1.165     1.028  20.38
      1677     1244.686     50.30688  20.3171   0.0439  3.50    451.3455   1013.5684     1.425     1.227  16.69
      1678     444.3329     73.26886  21.4355   0.1791  6.97   1572.7297   1070.8909     1.154     0.773 -31.83
      1679      6527.15      123.537  18.5180   0.0206  4.04   1561.5636   1064.1055     3.546     2.201 -72.68
      1680     2184.104     48.36379  19.7066   0.0240  3.50      5.4709   1062.2269     1.304     1.240 -57.92
      1681      331.328     43.34644  21.7541   0.1421  4.40   1411.5326   1063.3038     1.036     0.797  25.01
      1682     1251.131     67.83378  20.3115   0.0589  3.83    350.7941   1073.3353     1.977     1.322  60.52
      1683     2619.734     52.90745  19.5091   0.0219  3.50    328.4731   1078.2545     1.393     1.346 -12.62
      1684      252.965      58.4185  22.0471   0.2508  6.58    583.0598   1060.9827     0.949     0.685  -2.32
      1685     530.2711     43.34644  21.2435   0.0888  3.50   1279.1471    976.2125     1.171     1.098  10.53
      1686     416.5324     41.07539  21.5057   0.1071  3.50    689.3918   1059.5454     1.222     0.944   2.39
      1687     225.9186     44.22221  22.1699   0.2126  4.46   1195.6304    975.9142     1.033     0.772  12.87
      1688     2000.907     50.30688  19.8017   0.0273  3.50   1595.7189   1064.8687     1.365     1.255 -23.42
      1689      113.878     21.45092  22.9137   0.2046  3.50   1502.2365   1070.4115     0.743     0.453  19.08
      1690     241.4248     53.62731  22.0978   0.2412  7.65    828.8124    976.0007     0.822     0.508  31.42
      1691     1636.676     56.75381  20.0199   0.0377  3.50    567.4468   1065.7648     1.648     1.318 -62.14
      1692     2580.855     116.0136  19.5254   0.0488  4.03   1472.9432   1067.1240     3.263     2.113  15.95
      1693     382.8562      42.4526  21.5972   0.1204  3.50   1123.0597   1057.1827     1.195     1.011 -17.86
      1694     329.9837     46.33929  21.7586   0.1525  4.26    844.8634   1083.4130     1.264     0.799  21.54
      1695     144.0174     35.02921  22.6587   0.2641  6.26    746.4868   1063.5138     0.507     0.492 -44.97
      1696      5734.51     86.69288  18.6585   0.0164  3.50    725.3589   1058.9709     2.510     2.063  31.15
      1697     232.0179     44.65366  22.1410   0.2090  7.84    953.4810    974.5188     0.501     0.498 -45.08
      1698     249.8245     49.53879  22.0607   0.2153  6.31   1084.8912    989.2990     0.875     0.590  29.94
      1699     954.0566     51.80891  20.6058   0.0590  3.55    290.4256   1062.9126     1.423     1.215 -13.06
      1700      2383.71     62.23233  19.6116   0.0284  3.50     41.1571   1082.7277     1.799     1.469 -15.44
      1701     5633.015     91.42893  18.6779   0.0176  3.84    796.3074    979.9839     2.254     2.089 -62.25
      1702     731.8181     77.09412  20.8938   0.1144  5.55    952.1194    984.0148     1.664     0.958 -48.97
      1703      2227.53     56.51551  19.6852   0.0276  4.00    451.0667    977.1329     1.607     1.484  -5.54
      1704     335.1902     49.15024  21.7416   0.1592  5.27   1456.6141   1049.5836     1.234     0.615  -9.51
      1705     844.1715     68.95508  20.7387   0.0887  5.36    808.1297   1042.3113     1.200     1.142  57.41
      1706     87.43674     27.69302  23.2005   0.3440  5.83   1431.6334   1058.2843     0.568     0.336  41.08
      1707     369.6884     40.60595  21.6352   0.1193  3.50   1064.5015    977.7490     1.229     0.895 -23.13
      1708     371.5883     78.81573  21.6296   0.2303  6.92    763.8778   1055.1661     1.233     0.875 -32.48
      1709     1217.453     67.55054  20.3412   0.0603  4.04   1485.3207    981.1716     1.845     1.258  47.88
      1710     832.3297     73.00671  20.7540   0.0953  4.86    399.0085   1051.7738     1.609     1.164  86.30
      1711     217686.3     79.78283  14.7102   0.0004  3.50    631.3652   1039.2957     2.188     1.982 -49.29
      1712     436.6384     58.74578  21.4545   0.1461  4.88    663.2781   1055.3147     1.156     1.039   5.93
      1713     496.4315      55.0388  21.3151   0.1204  4.39   1384.1238   1052.4255     1.405     0.923 -13.19
      1714      2270020     100.2319  12.1647   0.0000  3.50     48.6319   1022.7229     2.734     2.521 -39.57
      1715     192.1121     45.92369  22.3459   0.2596  6.88   1260.9633   1049.4894     0.795     0.500   1.28
      1716     97.69949     21.45092  23.0800   0.2384  4.94   1104.3126    988.6884     0.559     0.342  44.94
      1717     9625.784     100.9941  18.0962   0.0114  3.50    300.9308   1029.1570     3.066     2.234  72.25
      1718     1033.272     94.52209  20.5192   0.0993  6.68   1156.8037   1046.7354     1.386     1.193  41.76
      1719     262.7068     47.15952  22.0061   0.1950  5.38   1525.0220   1045.1901     0.892     0.744 -81.12
      1720     208.9293     36.63443  22.2548   0.1904  4.98    437.3614   1038.1353     1.092     0.411 -75.73
      1721     153.3685     24.76939  22.5904   0.1754  3.50    600.5267   1046.9762     0.770     0.498  86.45
      1722     817.6473     50.30688  20.7734   0.0668  3.93     51.4117   1079.4005     1.207     1.131 -35.88
      1723     529.3121      42.4526  21.2455   0.0871  3.50    207.0277   1047.2301     1.170     1.083 -17.92
      1724      1136.04      58.4185  20.4163   0.0558  3.50    235.9762   1051.2361     1.642     1.386  41.42
      1725     98904.96     75.58725  15.5667   0.0008  3.50   1378.5509   1024.8617     2.015     1.902 -78.86
      1726     43847.07     70.33156  16.4499   0.0017  3.50    523.7906   1037.6793     1.867     1.801 -84.97
      1727     117.4859     32.17639  22.8798   0.2974  6.97    155.6416   1044.6848     0.580     0.331 -43.21
      1728     120.6814     35.02921  22.8507   0.3152  6.02    580.5225   1047.4812     0.511     0.488 -45.19
      1729     1392.431     60.98756  20.1953   0.0476  4.00    395.2542   1087.1918     1.545     1.298  75.49
      1730     946.6179     59.71685  20.6143   0.0685  3.92   1094.3693   1041.6191     1.685     1.144  37.67
      1731     242.6689     30.96174  22.0922   0.1386  3.50    580.9518   1022.8240     1.004     0.647  32.11
      1732     762.4854     66.98049  20.8492   0.0954  5.15    240.3840   1036.2699     1.285     1.083  15.04
      1733     98.47797     32.17639  23.0714   0.3548  6.83    672.6727   1028.6810     0.568     0.338 -44.60
      1734     512.0069     74.56575  21.2816   0.1582  5.77   1250.5867   1029.7891     1.318     1.070  64.57
      1735     1850.248      97.3204  19.8867   0.0571  4.46   1267.1686   1020.2588     2.729     1.442  47.79
      1736     1568.105     67.26612  20.0663   0.0466  3.75    465.6975   1039.9280     1.842     1.448  59.70
      1737     141.1355     40.60595  22.6807   0.3125  7.23    589.4663   1040.0371     0.795     0.313 -57.93
      1738     206.2595     60.35555  22.2687   0.3178  7.33   1534.8657   1034.8689     0.840     0.670 -45.51
      1739     12860.01     63.75413  17.7817   0.0054  3.50    343.0615   1010.2772     1.684     1.628 -48.20
      1740     7212.848     91.41524  18.4095   0.0138  4.17    452.4794    985.6620     2.431     2.218  40.96
      1741     129.1374     35.02921  22.7772   0.2946  6.26    567.5142   1021.4814     0.513     0.486 -44.84
      1742     191.3197     39.65038  22.3504   0.2251  5.64   1550.0105   1029.5154     0.778     0.500  -0.80
      1743     418.6849     41.53954  21.5001   0.1077  3.50    492.2101   1032.5337     1.292     0.939   4.36
      1744     1797.994     81.91707  19.9178   0.0495  4.78    266.0714   1009.8788     1.636     1.491  63.85
      1745     1052.283      83.9971  20.4994   0.0867  4.39    179.2599   1027.4216     1.944     1.547 -58.42
      1746     127.1254     21.45092  22.7942   0.1832  3.50   1311.5249   1025.4601     0.501     0.497  38.35
      1747     450.679