#   1 KRON_RADIUS            Kron apertures in units of A or B                         
#   2 MAGERR_APER            RMS error vector for fixed aperture mag.                   [mag]
#   3 Y_IMAGE                Object position along y                                    [pixel]
#   4 X_IMAGE                Object position along x                                    [pixel]
#   5 THETA_IMAGE            Position angle (CCW/x)                                     [deg]
#   6 FLUX_APER              Flux vector within fixed circular aperture(s)              [count]
#   7 A_IMAGE                Profile RMS along major axis                               [pixel]
#   8 B_IMAGE                Profile RMS along minor axis                               [pixel]
#   9 FLUX_RADIUS            Fraction-of-light radii                                    [pixel]
#  10 FLUXERR_APER           RMS error vector for aperture flux(es)                     [count]
#  11 MAG_APER               Fixed aperture magnitude vector                            [mag]
#  12 NUMBER                 Running object number                                     
 3.50   0.0000    181.0222   1105.8365 -40.31      2525469     6.539     5.885     10.208     83.79344  12.0441          1
 3.68   0.0006     52.4050     61.7681  -2.27     152160.9     6.359     5.786     15.327     83.80292  15.0942          2
 3.50   0.0004     58.9521   1076.9418  81.32     241637.6     2.093     1.972      3.903     83.77448  14.5921          3
 3.50   0.0036     15.7237    983.4587 -87.90     25021.05     4.509     1.979      8.378     83.75552  17.0542          4
 3.50   0.0044     17.0120     89.4810 -42.63     20541.01     1.663     1.619      3.623     83.80292  17.2684          5
 3.50   0.0017     13.8143   1444.2383 -42.28     53122.21     1.721     1.697      3.575     83.81239  16.2368          6
 3.64   0.0448     16.2665    382.9738  86.43     2030.035     1.231     1.191      3.186     83.79344  19.7812          7
 4.95   0.0863     13.1674    839.5089 -76.27     1054.211     1.479     0.949      4.321     83.74603  20.4927          8
 3.64   0.0984      9.2333   1182.3411 -70.45     924.6157     1.026     0.964      2.793     83.80292  20.6351          9
 4.21   0.1236      5.6605   1467.9125   8.54     698.0288     1.152     0.903      3.561     79.43346  20.9403         10
 4.51   0.0365      3.6078    143.2684  59.55     2166.937     1.696     1.490      4.995     72.85126  19.7104         11
 5.88   0.0893      3.6479    183.5916 -38.45     888.2032     1.080     0.962      4.217     73.04725  20.6787         12
 6.99   0.2065      2.5114    843.4935  44.82     360.0262     0.507     0.493      2.497     68.46735  21.6592         13
 6.37   0.1403      1.8622    302.3619  20.33      508.801     0.906     0.677      3.996     65.73298  21.2836         14
 3.91   0.0206     23.8545    365.4416  -3.18      4417.41     1.390     1.345      3.755     83.77448  18.9371         15
 4.93   0.1694     14.8386   1561.6169 -19.92     537.2113     0.905     0.686      2.827     83.81239  21.2246         16
 4.67   0.1580     17.1879   1213.4882  -0.33      575.857     0.921     0.725      2.498     83.79344  21.1492         17
 7.39   0.2666     15.4944    192.9995 -32.51     341.2418     0.786     0.318      3.176     83.75552  21.7173         18
 4.18   0.0346     33.0747   1108.5681  65.68     2626.453     2.036     1.213      4.370       83.765  19.5016         19
 3.82   0.0617     23.0219    381.4543   6.25     1475.131     1.319     1.170      3.765     83.82187  20.1279         20
 5.46   0.1098     22.9778    696.8055  -3.26      828.808     0.886     0.748      3.452     83.77448  20.7539         21
 7.61   0.3217     20.6041    212.2110 -18.94     282.6767     0.744     0.450      3.013     83.74603  21.9218         22
 6.44   0.1259     23.9324   1451.8411 -46.75      722.493     0.843     0.652      3.643     83.78396  20.9029         23
 4.88   0.0516     32.3874    325.0325 -26.40     1763.814     1.486     1.262      4.276     83.79344  19.9339         24
 7.47   0.1432     26.2151    701.0262  -0.99     635.4858     0.703     0.411      3.716     83.78396  21.0422         25
 6.50   0.0980     33.5743     14.7714 -89.15     928.4808     0.947     0.712      4.480     83.79344  20.6306         26
 3.57   0.0732     37.0450   1519.9745 -74.77     1242.896     1.093     1.076      2.690     83.82187  20.3139         27
 4.28   0.0539     38.0067   1169.0526  23.11     1690.644     1.223     1.198      3.764      83.8503  19.9799         28
 3.71   0.0641     41.6028    913.7512 -64.32     1420.646     1.133     1.039      2.860     83.84082  20.1688         29
 3.50   0.0004     79.0617    535.8607 -66.40       231899     1.966     1.931      3.757       83.765  14.6368         30
 4.97   0.0549     43.5270    438.5287 -52.86     1655.913     1.481     1.242      4.703     83.70808  20.0024         31
 4.10   0.1709     38.6270   1224.5396 -37.16     532.3832     1.156     0.777      3.006     83.80292  21.2344         32
 4.55   0.0776     49.4868    263.5109  89.83     1171.378     1.455     1.089      4.304     83.72706  20.3783         33
 4.50   1.8541     41.5007    999.9727  -1.62     49.04152     0.790     0.500      2.118     83.72706  23.8236         34
 7.08   0.2131     42.5779    226.7772  19.95     426.9064     0.748     0.450      2.948     83.78396  21.4742         35
 7.84   0.1849     45.7927    473.3825 -71.71     492.0257     0.746     0.449      3.375     83.75552  21.3200         36
 4.11   0.0910     49.4914   1433.9777  -4.26      999.449     1.069     0.925      3.044     83.75552  20.5506         37
 5.09   0.1720     46.7959   1429.1587  44.33     529.1902     0.809     0.669      2.610     83.81239  21.2410         38
 5.94   0.1537     46.8517    664.8470 -43.30     592.1964     0.825     0.669      3.285     83.81239  21.1188         39
 6.42   0.1070     50.4846    119.9498   0.88      849.871     0.780     0.500      3.297     83.74603  20.7266         40
 3.52   0.0107     74.1052    126.4799 -19.14     8525.995     1.475     1.433      3.314     83.71758  18.2231         41
 7.34   0.3378     57.4917   1240.0228 -32.67     269.2715     0.781     0.319      2.546     83.75552  21.9745         42
 4.98   0.0769     64.9824   1146.2659   9.37     1184.224     1.374     1.141      4.857     83.80292  20.3664         43
 7.06   0.0822     68.4563     17.7707  88.90     1107.937     0.996     0.721      4.934     83.81239  20.4387         44
 6.44   0.1262     66.8790   1414.1798 -28.14     721.0579     0.963     0.744      4.096     83.79344  20.9051         45
 6.93   0.4417     65.5014   1514.5054 -45.69     205.7446     0.501     0.499      2.484     83.68911  22.2667         46
 5.53   0.1609     70.7447   1320.8502 -68.46     565.4425     0.911     0.682      3.188     83.78396  21.1690         47
 3.50   0.0003    120.9251    787.4896 -59.16     344537.9     2.018     1.992      3.807     83.71758  14.2069         48
 3.90   0.0420     81.3288    419.7149 -76.83     2166.366     1.520     1.278      3.804     83.71758  19.7107         49
 3.94   0.0195     89.6612    375.3916 -19.36     4657.764     2.301     2.014      5.805     83.84082  18.8796         50
 8.71   0.0438     75.8810     80.4187 -26.69     2076.862     1.370     0.840      8.220     83.80292  19.7565         51
 4.79   0.1687     78.7909   1031.8494 -33.64     539.5912     0.892     0.849      3.363     83.82187  21.2198         52
 3.50   0.0001    192.5951    316.2862 -64.39      1474674     2.878     2.293      4.029     83.77448  12.6283         53
 3.50   0.0071     95.5876     54.3806 -29.57     12865.35     1.614     1.584      3.663       83.765  17.7764         54
 5.86   0.1371     87.0195   1358.1309 -88.30     664.2287     0.995     0.847      4.205     83.83134  20.9942         55
 5.84   0.0701     87.4903    757.1628  35.83     1296.938     1.165     1.017      5.156     83.73655  20.2677         56
 6.63   0.0845     82.9746    930.8279  20.66     1076.897     1.160     0.723      5.188     83.79344  20.4696         57
 6.93   0.0968     86.4810    862.1655 -47.77     939.9649     1.108     0.733      5.316     83.77448  20.6172         58
 6.86   0.2165     85.0348   1559.2076  52.97     420.2357     0.930     0.470      3.706     83.79344  21.4913         59
 6.00   0.0881     90.8526   1043.8802  55.00     1031.706     1.397     0.799      4.644     83.72706  20.5161         60
 3.82   0.0701     90.7001    494.0876   0.64     1295.825     1.105     1.019      3.046     83.67962  20.2686         61
 4.28   0.0307     97.1019    451.1805 -12.65     2958.979     1.924     1.255      5.086     83.73655  19.3721         62
 5.06   0.0641     94.6267   1074.8350  39.51     1418.774     1.336     1.126      4.557     83.79344  20.1702         63
 7.44   0.1306     85.3500    923.3128 -46.64     696.0823     0.575     0.334      2.791     83.73655  20.9433         64
 6.97   0.1562     87.8495    810.6924 -59.25     581.9759     0.869     0.590      3.779     83.72706  21.1377         65
 6.33   0.2007     94.0801    387.5246  89.88     453.2654     0.774     0.499      2.944     83.75552  21.4091         66
 4.03   0.0007    233.9082    401.8713 -47.20     139179.5     8.632     7.090     22.498     83.72706  15.1911         67
 6.55   0.1158    101.8555    517.3245  20.24     785.6375     0.933     0.683      4.318     83.74603  20.8119         68
 5.90   0.0717    112.7964    268.6332  80.50      1269.81     1.522     1.118      5.661     83.80292  20.2907         69
 4.71   0.1620    107.3404    861.3599  41.75     561.6238     0.979     0.859      2.714     83.79344  21.1764         70
 6.49   0.0928    106.1678   1098.1515 -41.98     981.0342     0.806     0.676      4.400     83.81239  20.5708         71
 6.85   0.1315    106.9845   1420.9861 -44.46     692.1395     0.881     0.534      3.668     83.78396  20.9495         72
 7.78   0.1726    106.4694    180.4571 -48.20     526.8392     0.503     0.495      3.016     83.74603  21.2458         73
 5.35   0.0894    114.2177    414.3000 -75.12      1016.99     1.174     0.927      4.157     83.73655  20.5317         74
 5.05   0.2084    109.9821   1513.4705   1.43     436.7889     0.806     0.687      2.893     83.82187  21.4493         75
 3.50   0.1158    116.1276    989.3898 -72.21     786.4285     1.139     0.958      2.970     83.82187  20.8109         76
 4.15   0.1287    116.6369    152.4058  53.02     706.8085     1.006     0.952      2.618     83.79344  20.9267         77
 5.52   0.0616    116.3723     65.2133   7.35     1477.474     1.480     0.950      4.717     83.79344  20.1262         78
 3.50   0.0005    161.4548   1466.8241 -54.44     195554.6     1.934     1.900      3.740     83.82187  14.8218         79
 5.02   0.0723    125.2403    492.5927  -6.86     1258.409     1.464     1.092      4.063     83.80292  20.3004         80
 8.11   0.2642    117.6457    911.6918 -47.04     344.1548     0.575     0.334      2.415     83.71758  21.7081         81
 4.68   0.0730    130.2387    416.2955 -27.12     1246.233     1.014     0.997      3.306     83.71758  20.3110         82
 4.35   0.1893    127.1574   1476.9080  43.78     480.2777     0.822     0.651      2.065     83.70808  21.3463         83
 5.12   0.1576    128.0846    884.0657 -58.07     577.0485     0.780     0.779      3.186     83.71758  21.1470         84
 5.84   0.0637    141.3550    884.3093  52.16     1427.937     2.131     0.964      7.085     83.72706  20.1632         85
 8.30   0.4669    134.6447     97.6783 -46.36     194.7968     0.581     0.330      3.025     83.74603  22.3260         86
 5.23   0.0509    145.7969    352.2505 -48.50     1788.923     1.407     1.153      4.905     83.84082  19.9185         87
 6.25   0.2211    138.1987   1599.6450 -72.96     311.3414     0.752     0.444      3.218      63.3956  21.8169         88
 3.50   0.0021    169.2841    875.6372 -78.34     43943.14     1.768     1.723      3.666     83.77448  16.4428         89
 3.99   0.0816    150.7436   1278.8497  28.32     1115.547     1.078     1.029      3.240     83.77448  20.4313         90
 4.29   0.0214    164.2198   1444.2903  61.79     4252.135     1.450     1.305      4.059     83.77448  18.9785         91
 3.87   0.1347    154.5441     80.6298 -48.01     675.7617     1.066     0.917      2.697     83.81239  20.9755         92
 6.00   0.1288    155.1815   1578.5652   5.70     706.6641     0.898     0.727      3.900     83.79344  20.9270         93
 7.51   0.2754    154.5055    822.5117  46.03     329.9943     0.501     0.498      2.941     83.69859  21.7537         94
 3.50   0.0333    165.7383    102.5978 -37.77     2732.768     1.311     1.165      2.999     83.84082  19.4585         95
 4.87   0.0867    165.0086    574.7706  86.48     1049.667     1.251     0.963      3.876     83.79344  20.4974         96
 7.70   0.0486    165.8022   1054.6754 -60.40     1874.237     1.211     1.000      7.269     83.81239  19.8679         97
 8.26   0.2088    159.3821    491.2143  17.93      435.748     0.756     0.448      3.910     83.78396  21.4519         98
 5.10   0.1564    164.3577   1196.5062  18.24     581.2194     0.945     0.817      2.925     83.70808  21.1391         99
 4.96   0.0772    167.8831    649.7219  36.86     1178.238     1.237     1.028      4.060     83.73655  20.3719        100
 5.03   0.0501    168.4620   1367.5079  -4.70     1815.961     1.259     0.968      4.303     83.75552  19.9022        101
 6.77   0.0905    174.8292   1198.9620 -74.73     1005.478     1.100     0.850      4.704     83.80292  20.5441        102
 4.54   0.0452    179.3327    573.3319  24.33      2013.69     1.714     1.330      4.769     83.72706  19.7900        103
 5.66   0.0348    185.8885   1353.4348 -69.02     2614.606     1.580     1.377      6.864       83.765  19.5065        104
 4.12   0.0180    191.7545   1349.0994  -8.69     5058.552     1.394     1.366      3.616     83.68911  18.7899        105
 6.94   0.0563    189.5625   1026.0391  51.22     1615.817     1.298     1.107      7.226     83.82187  20.0290        106
 8.39   0.1572    182.3929     58.7790 -19.01     578.7872     0.766     0.444      4.299     83.77448  21.1437        107
 3.61   0.0048    209.8589    826.0873  -7.87     18983.49     4.937     2.269     10.169     83.74603  17.3541        108
 3.95   0.0055    229.0334    560.6039 -26.64     16581.53     3.951     3.606     10.376     83.80292  17.5009        109
 7.27   0.1496    186.4370    834.3389  -8.75     608.2984     0.995     0.478      4.494     83.79344  21.0897        110
 5.73   0.0503    194.2279    266.1493  -2.74     1808.419     1.598     1.112      6.000     83.81239  19.9068        111
 3.50   0.0002    258.9285    995.8074 -39.84     597533.9     2.157     2.062      3.861     83.82187  13.6091        112
 5.33   0.0149    207.8602    348.2912  42.92     6121.557     2.172     1.551      7.845     83.73655  18.5828        113
 3.50   0.0099    205.7459    547.4401  30.29     9145.562     1.440     1.435      3.302     83.77448  18.1470        114
 7.23   0.0667    193.8830   1158.3497  19.93     1363.757     0.901     0.693      5.408     83.74603  20.2132        115
 4.67   0.0430    202.5069    249.0628 -82.07     2117.138     1.245     1.125      4.167     83.74603  19.7356        116
 6.30   0.0989    195.0164    447.8040  -1.57     919.4899     0.905     0.757      4.154     83.75552  20.6411        117
 3.50   0.0098    211.3949   1304.6354 -22.74     9244.327     1.484     1.447      3.443     83.79344  18.1353        118
 3.50   0.0002    264.9597     65.7597 -32.49     441372.3     2.095     2.035      3.828     83.82187  13.9380        119
 4.14   0.0336    209.9293    683.1187 -66.62     2708.274     1.588     1.287      4.132     83.72706  19.4683        120
 5.97   0.2128    205.0531    940.3129  79.60     427.3099     0.730     0.683      2.752     83.72706  21.4731        121
 6.18   0.1045    204.7234    935.2993 -17.45     869.7855     1.044     0.660      4.347     83.69859  20.7015        122
 5.76   0.1406    204.9661    182.0299 -44.92     647.1896     0.793     0.788      3.195     83.79344  21.0224        123
 6.06   0.0194    221.6865    344.0318  25.49     4686.649     2.076     1.969     10.544     83.78396  18.8728        124
 3.64   0.1129    208.3053   1224.1161  17.48     805.2443     1.017     0.915      2.762     83.67961  20.7852        125
 3.50   0.0086    223.2675   1224.5825 -89.29     10561.44     1.447     1.430      3.256     83.81239  17.9907        126
 6.36   0.0767    216.6158    881.3004 -56.94      1186.19     1.809     0.740      5.473     83.75552  20.3646        127
 6.23   0.0517    216.7369    739.7720 -48.77     1758.954     1.484     1.052      6.363     83.79344  19.9369        128
 3.50   0.0001    311.2113    437.7717 -43.93      1739159     2.528     2.337      4.104     83.80292  12.4492        129
 3.50   0.0255    221.6353    773.3149 -28.64     3567.475     1.304     1.232      3.034     83.78396  19.1691        130
 7.25   0.1352    213.9205    791.8632 -44.17     672.6052     0.851     0.667      4.211     83.72706  20.9806        131
 8.64   0.0429    220.8395    373.6221  32.45     2119.366     1.683     0.981      9.680     83.80292  19.7345        132
 7.72   0.0518    226.6158    323.3230 -86.04     1756.214     1.792     0.855      9.273     83.81239  19.9386        133
 4.09   0.0131    243.0104    111.1028 -84.61     6924.525     2.358     1.744      6.017     83.74603  18.4490        134
 4.02   0.0051    254.5417    611.2194 -43.66     17927.62     2.738     2.260      7.121     83.81239  17.4162        135
 7.73   0.2356    220.6618   1401.3055  46.61     385.9866     0.567     0.338      2.715     83.73655  21.5836        136
 6.32   0.0522    229.1916    546.3879 -64.50     1741.471     1.265     1.034      6.537     83.74603  19.9477        137
 4.00   0.0307    238.3424    837.3022  -9.76     2966.193     1.711     1.461      4.712     83.71758  19.3695        138
 3.60   0.2937    232.0458   1551.7197 -75.01     309.6422     0.719     0.670      2.100     83.74603  21.8228        139
 5.39   0.1002    238.9705   1477.4504 -68.12     908.8034     1.289     0.924      4.288     83.81239  20.6538        140
 5.53   0.0250    251.0242   1371.4264  88.51     3634.991     1.875     1.660      7.655     83.79344  19.1487        141
 5.00   0.0361    249.4536    105.7782 -15.15      2519.38     1.367     1.268      4.827     83.81239  19.5468        142
 6.38   0.0824    247.8134   1412.9871  26.31     1103.895     1.222     0.976      5.190       83.765  20.4427        143
 3.56   0.0710    252.4222   1351.3031 -18.77     1281.822     1.077     1.070      3.023     83.74603  20.2804        144
 4.93   0.2095    248.0549    561.1425 -45.10     434.2309     0.823     0.656      3.180     83.75552  21.4557        145
 5.40   0.1103    250.4485   1549.2814 -84.04     824.7504     0.998     0.957      3.629     83.74603  20.7592        146
 3.50   0.0009    286.7189   1484.9951 -39.03     104523.4     1.874     1.841      3.692     83.78396  15.5020        147
 6.17   0.1523    248.9496    149.9729  73.74     597.5496     0.793     0.788      3.391     83.81239  21.1091        148
 6.83   1.2822    252.4687    693.5012  40.35     70.93084     0.503     0.496      2.513     83.74603  23.4229        149
 3.50   0.0039    281.0660   1520.9102  76.99     23298.02     1.639     1.588      3.495     83.75552  17.1317        150
 6.41   0.0816    264.1126    722.8807 -57.13     1113.993     1.243     0.947      5.269     83.72706  20.4328        151
 3.50   0.0001    350.4285    889.1489 -49.01      1586098     2.387     2.221      3.959     83.81239  12.5492        152
 3.50   0.0003    317.8304    903.7720 -63.35     301493.8     2.038     1.981      3.820     83.80292  14.3518        153
 5.46   0.0876    264.5226    122.0393  -1.21     1038.292     1.080     0.952      3.931       83.765  20.5092        154
 4.90   0.0362    270.1254   1272.1100   7.57      2513.77     1.506     1.316      5.335     83.71758  19.5492        155
 6.48   0.3456    261.2282   1207.9971   0.13     263.2375     0.689     0.420      2.577       83.765  21.9991        156
 6.80   0.1153    267.1037   1386.8289  48.46     788.7888     0.839     0.668      4.525     83.73655  20.8076        157
 7.58   0.0543    268.0160    368.0384   0.94     1675.963     1.012     0.733      6.071     83.81239  19.9893        158
 3.50   0.0001    350.4937   1344.3156 -36.91      1504635     2.394     2.229      3.971     83.68911  12.6064        159
 3.50   0.0012    302.1434    199.9518 -79.73      76350.8     1.813     1.801      3.670     83.78396  15.8430        160
 6.87   0.3181    268.3021   1308.6689  43.48      285.901     0.562     0.341      2.493     83.74603  21.9095        161
 3.50   0.0102    288.8237    513.3386  27.69     8937.033     1.893     1.834      4.507     83.81239  18.1720        162
 6.27   0.3141    270.4909   1248.9762   1.18     289.5964     0.770     0.500      2.902     83.75552  21.8955        163
 4.38   0.0175    296.6169   1412.0374 -41.70     5212.265     3.597     1.650      7.977     83.81239  18.7574        164
 7.97   0.1043    275.9687   1376.4888  89.22     872.0397     0.794     0.500      4.182     83.75552  20.6987        165
 6.89   0.1071    274.5126   1369.0352   0.02      849.268     0.780     0.500      3.753     83.75552  20.7274        166
 3.50   0.0090    293.0799   1326.0524  -7.85     10089.63     1.499     1.464      3.415     83.73655  18.0403        167
 4.57   0.0202    292.5134   1474.2167 -17.53     4496.021     1.626     1.395      5.168     83.78396  18.9179        168
 6.58   0.1425    278.4937    555.5334  -0.01     638.3132     1.063     0.500      3.513     83.75552  21.0374        169
 7.55   0.0554    287.1521    413.4819  13.30     1640.729     1.036     0.857      6.213     83.75552  20.0124        170
 7.25   0.1282    285.3535    336.7982  67.10     710.2923     0.735     0.659      4.412     83.83134  20.9214        171
 4.92   0.0727    291.3463    246.8294 -26.38     1251.819     1.209     1.045      4.141     83.81239  20.3061        172
 6.45   0.2167    286.9872   1349.7050 -88.74      419.759     0.744     0.675      3.560       83.765  21.4925        173
 3.50   0.0218    301.2831    561.9075  57.68     4178.424     1.420     1.390      3.587     83.73655  18.9975        174
 5.46   0.0327    307.6686     83.4995  76.55     2782.942     1.953     1.350      6.891     83.73655  19.4387        175
 6.42   0.0715    294.5245    885.6899 -11.71     1272.289     0.953     0.939      5.018     83.71758  20.2885        176
 3.50   0.0018    321.1589    695.6109  55.20     50695.07     1.707     1.700      3.579     83.79344  16.2876        177
 3.50   0.0026    345.4642    865.4515  53.74     34491.34     2.524     2.088      4.547       83.765  16.7057        178
 3.59   0.0213    320.7474    639.8264 -63.05     4266.155     2.503     1.668      5.378     83.81239  18.9749        179
 7.28   0.0709    310.3055    315.7304  75.59     1282.207     1.350     0.931      7.218     83.73655  20.2801        180
 4.10   0.0093    326.5276    593.7271   4.50     9819.616     2.087     1.959      5.828     83.72706  18.0698        181
 3.86   0.1541    308.7935    983.5371  25.15     590.7207     0.966     0.956      2.813     83.83134  21.1215        182
 5.26   0.0916    315.9427    225.0871  -1.04      993.012     1.236     0.852      3.666     83.74603  20.5576        183
 6.01   0.2787    312.7872   1494.9622  -1.51     326.5851     0.688     0.409      2.411     83.81239  21.7650        184
 5.10   0.0545    323.8518    954.0250  24.36     1670.386     1.570     1.202      5.424     83.82187  19.9930        185
 4.55   0.0473    328.4711   1544.5985 -22.93     1923.394     1.198     1.133      3.716     83.82187  19.8398        186
 7.60   0.1637    320.5096    574.5020  44.12     555.1792     0.501     0.499      2.930     83.69859  21.1889        187
 3.60   0.0414    331.2683     91.5539 -37.81     2199.889     1.251     1.148      2.963     83.77448  19.6940        188
 5.25   0.1284    323.9714    340.2361   1.18     708.8857     0.899     0.741      3.157     83.79344  20.9236        189
 3.50   0.0032    354.8637    430.0891  84.22     28149.56     2.035     1.846      4.380     83.74603  16.9263        190
 4.51   0.0410    334.1932   1438.9866 -61.97     2219.501     1.187     1.115      3.659     83.72706  19.6844        191
 7.95   0.2193    328.3133    242.3292 -44.21     414.5918     0.567     0.339      3.110     83.71758  21.5059        192
 7.57   0.3071    335.0217    621.7671  89.09     296.3362     0.704     0.423      2.483     83.79344  21.8705        193
 5.84   0.0700    338.5684    804.0828 -10.93     1299.604     2.019     0.865      7.137     83.77448  20.2655        194
 6.27   0.1038    336.1012    811.3517 -21.42     875.4745     1.121     0.659      4.416     83.67012  20.6944        195
 7.84   0.1431    335.5740    609.2935   7.76      635.489     0.983     0.481      4.160     83.75552  21.0422        196
 3.64   0.0188    349.0482     52.9581 -34.75     4851.465     1.397     1.349      3.365     83.80292  18.8353        197
 3.50   0.0017    367.2421    759.4966 -16.46     52366.11     1.788     1.731      3.607     83.70808  16.2524        198
 3.50   0.0045    366.4039    441.0595  60.32     20183.62     1.703     1.614      3.629     83.84082  17.2875        199
 6.04   0.2050    340.0346   1502.2819 -85.56     443.7867     0.729     0.670      3.333     83.77448  21.4321        200
 3.50   0.0004    394.2231    229.6339 -61.52     256510.2     2.001     1.944      3.809     83.79344  14.5272        201
 7.16   0.0446    349.2558    918.5583 -43.59     2039.893     1.419     1.262      8.512       83.765  19.7760        202
 5.32   0.0881    347.1980     40.6213 -70.01     1032.896     1.034     0.913      4.049     83.77448  20.5149        203
 3.50   0.0095    360.3920   1498.8724 -13.07     9607.423     1.705     1.432      3.707     83.80292  18.0935        204
 4.36   0.0289    374.3014    752.1323  56.57     3143.769     2.498     1.457      5.647     83.74603  19.3064        205
 4.77   0.0459    358.7290    531.6100 -31.96      1985.61     1.382     1.241      4.888     83.83134  19.8053        206
 3.63   0.0374    359.6933   1032.4904 -13.85     2429.467     1.267     1.224      2.993     83.71758  19.5862        207
 5.23   0.0532    362.5005   1414.1726 -86.10     1708.772     1.351     1.231      5.199     83.72706  19.9683        208
 5.94   0.1305    355.0646   1396.9675  60.64     697.1708     0.773     0.771      3.837     83.79344  20.9417        209
 8.72   0.1620    352.5162   1578.9824 -32.66     561.7758     0.781     0.319      3.878     83.79344  21.1761        210
 6.61   0.0992    360.5316    368.4804  79.14     916.3453     0.947     0.897      4.611     83.72706  20.6449        211
 4.38   0.0506    369.5655     69.7675 -54.66     1797.817     1.395     1.220      4.496     83.81239  19.9131        212
 5.83   0.0697    368.2738    208.4582 -81.93     1304.581     1.185     0.992      5.270     83.74603  20.2613        213
 3.66   0.0301    371.8491    990.9427 -12.33      3025.96     1.288     1.225      3.251     83.77448  19.3478        214
 3.96   0.0384    372.4417   1082.3573 -12.91     2369.688     1.515     1.457      4.758     83.79344  19.6133        215
 6.83   0.1305    365.1463    940.1025 -44.47     696.6263     0.827     0.666      3.891     83.70808  20.9425        216
 3.50   0.0025    396.2050   1459.7307 -71.23     36760.33     1.701     1.671      3.563     83.82187  16.6366        217
 3.62   0.1219    374.3093     85.4302 -68.26     746.4276     1.049     0.957      2.630     83.75552  20.8675        218
 3.50   0.0022    397.1697    352.8683 -62.71     41610.16     1.731     1.677      3.584     83.79344  16.5020        219
 3.50   0.0004    418.7024    431.5961 -53.88     234236.1     1.960     1.933      3.778       83.765  14.6259        220
 4.67   0.0629    381.4783     65.5865  33.45     1447.494     1.422     1.131      3.806     83.81239  20.1485        221
 4.31   0.0551    379.1620    123.8833 -45.19      1651.84     1.160     1.102      2.987     83.77448  20.0051        222
 8.58   0.0490    374.0639   1344.7878   1.89     1858.248     0.938     0.750      5.629     83.83134  19.8772        223
 6.86   0.0678    381.7127      9.4485  69.49     1340.512     1.231     1.120      7.385     83.73655  20.2318        224
 4.83   0.1420    379.1750    510.5343 -33.43     640.6586     1.023     0.805      3.194     83.79344  21.0334        225
 3.50   0.0104    392.8817   1087.1392   6.31     8778.936     1.464     1.452      3.357     83.72706  18.1914        226
 3.50   0.0008    414.6595    835.7791 -87.54     113082.2     1.861     1.824      3.703     83.80292  15.4165        227
 4.67   0.0243    395.7360    625.2922 -84.56     3747.664     2.068     1.808      6.893       83.765  19.1156        228
 4.31   0.0883    388.0979   1194.0056 -35.06     1030.109     1.118     1.051      3.164     83.75552  20.5178        229
 4.90   0.1424    388.7987    259.2574 -22.61     639.2077     0.937     0.845      2.979     83.84082  21.0359        230
 3.59   0.0636    395.6325    976.0615 -62.57     1429.917     1.294     1.101      3.449     83.78396  20.1617        231
 5.84   0.0359    402.6347    525.0397  64.46     2537.891     2.007     1.236      7.261     83.81239  19.5388        232
 4.55   0.3653    389.9111   1166.6669  82.68     248.9798     0.731     0.650      2.151     83.74603  22.0596        233
 5.42   0.1333    390.9950     93.6829  -2.17     682.3298     1.145     0.767      3.246     83.77448  20.9650        234
 5.30   0.3277    391.8295    682.1611  45.39     277.7516     0.806     0.665      2.353     83.80292  21.9409        235
 5.85   0.2536    390.4073   1063.8210 -19.23     358.7464     0.736     0.453      2.519     83.77448  21.6630        236
 3.50   0.0001    460.3263    806.0084 -44.64     724832.7     2.174     2.083      3.868     83.81239  13.3994        237
 7.62   0.0513    410.8039      1.7281 -86.84     1380.682     2.264     0.559      7.351     65.18697  20.1998        238
 5.59   0.1334    400.5119    810.9987  63.07     682.2349     0.999     0.673      3.067     83.77448  20.9652        239
 5.11   0.0612    412.4912   1560.8536 -61.91     1485.425     1.786     1.004      4.841     83.74603  20.1204        240
 3.52   0.0799    406.1577    280.5831 -61.55     1138.806     1.142     1.014      2.798     83.79344  20.4089        241
 3.50   0.0045    423.2345    924.7849   9.66     20285.77     1.601     1.597      3.502     83.79344  17.2820        242
 6.00   0.0260    420.4319    132.8687 -27.38      3502.31     2.661     1.886     10.082     83.78396  19.1891        243
 3.50   0.0011    436.9875    250.2835  64.68     83611.35     1.841     1.824      3.705     83.79344  15.7443        244
 5.37   0.0542    414.3479    557.6837  74.95     1679.127     1.626     1.253      5.400     83.72706  19.9873        245
 4.53   0.0185    419.8245    157.4588  31.43     4909.157     1.965     1.661      5.369     83.82187  18.8225        246
 3.50   0.0858    418.3754    772.9217 -64.50     1060.799     1.309     1.134      3.269     83.78396  20.4859        247
 4.87   0.0691    417.9241   1202.9960 -69.00     1317.437     1.158     1.150      4.087     83.81239  20.2507        248
 5.67   0.0653    419.0369   1579.2294 -64.75     1392.943     1.083     0.984      4.597     83.79344  20.1902        249
 6.35   0.1053    416.3668    938.8957  38.22      863.694     1.261     0.727      4.683     83.72706  20.7091        250
 5.72   0.0306    429.8091    717.6165  55.01     2972.291     2.286     1.725      8.670     83.74603  19.3673        251
 4.53   0.0315    425.8258   1177.8335  37.28     2892.013     1.797     1.380      5.333     83.79344  19.3970        252
 8.36   0.1079    413.5051    178.4913 -45.92     842.5015     0.501     0.499      3.004     83.69859  20.7361        253
 4.20   0.0041    466.8871    849.0101  22.49     22380.23     8.631     2.429     18.297     83.78396  17.1753        254
 7.63   0.1768    417.3970   1295.2036  17.97      514.473     0.762     0.451      3.471       83.765  21.2716        255
 4.71   0.1564    419.9548   1090.9780  44.64     581.7662     0.782     0.763      2.662     83.80292  21.1381        256
 3.50   0.1078    423.3932   1062.3090 -12.89     843.9289     1.067     0.947      2.573     83.75552  20.7342        257
 3.50   0.0134    432.1249   1420.5641 -14.37     6769.971     1.485     1.348      3.318       83.765  18.4735        258
 3.50   0.0352    433.0948    149.3635  27.67     2585.049     1.303     1.231      3.256     83.71758  19.5188        259
 4.38   0.1090    425.3532    298.3142 -55.62     834.4732     0.976     0.924      2.225       83.765  20.7465        260
 3.50   0.0034    449.3134     19.5175  79.54     26496.56     1.697     1.618      3.605     83.72706  16.9920        261
 4.28   0.2954    425.8291   1007.1801  45.92     308.1021     0.782     0.684      2.215     83.79344  21.8283        262
 6.46   0.0750    434.7358    118.2145 -14.46     1213.411     1.345     1.271      6.229     83.78396  20.3400        263
 7.60   0.1143    425.6917    239.6654 -43.70     796.0024     0.567     0.339      2.979     83.75552  20.7977        264
 4.11   0.0205    444.1478    120.4551 -35.94     4446.066     1.698     1.528      4.451       83.765  18.9301        265
 3.50   0.0333    439.0670    303.9563 -83.47     2734.729     1.232     1.225      3.026     83.77448  19.4577        266
 5.59   0.1642    429.2177   1307.1603 -38.83     554.3828     0.807     0.673      2.620     83.80292  21.1905        267
 4.53   0.1304    432.5266    404.7667 -70.31     697.7886     0.964     0.910      3.286       83.765  20.9407        268
 4.73   0.1336    432.8159    351.6668 -60.34     681.2071     0.947     0.890      2.835     83.82187  20.9668        269
 3.50   0.0031    456.8181     32.7335 -46.68      29819.9     1.680     1.666      3.590     83.79344  16.8637        270
 3.63   0.0196    446.5810    882.2385   5.63     4655.477     2.634     1.650      5.929     83.81239  18.8801        271
 4.13   0.0080    495.3749     81.0525 -72.67     11390.82     2.894     2.604      7.437     83.83134  17.9086        272
 7.07   0.1013    437.0200   1380.9813 -37.80     897.9272     0.808     0.779      4.846     83.78396  20.6669        273
 4.77   0.0736    442.9376    653.5607  68.37     1235.739     1.015     1.000      3.015     83.78396  20.3202        274
 4.62   0.0834    442.8451    172.6565 -62.31     1091.469     1.116     1.013      3.480     83.77448  20.4550        275
 5.99   0.6672    436.5044     52.4720 -49.04     136.2998     0.502     0.497      2.104     83.73655  22.7138        276
 5.83   0.1487    441.0673    958.0090 -28.05     612.2094     0.791     0.768      3.455     83.83134  21.0827        277
 5.57   0.0865    444.5764   1503.9631  -1.95     1051.909     1.086     0.934      4.272     83.78396  20.4951        278
 3.86   0.0012    532.1016    517.1438  27.64     77164.91     5.815     4.781     14.921     83.69859  15.8314        279
 3.50   0.0096    462.7155    466.8858  48.38     9517.477     1.566     1.468      3.586     83.71758  18.1037        280
 3.75   0.0562    452.0206   1531.8784  -2.25     1620.496     1.100     1.075      2.985     83.79344  20.0259        281
 4.64   0.0802    453.4803   1222.8856 -38.14     1133.778     1.148     1.028      3.210     83.72706  20.4137        282
 5.26   0.1936    450.7772   1129.9885 -89.03     469.9161     0.923     0.760      3.219     83.77448  21.3699        283
 3.59   0.0286    460.0517   1094.5823  38.36     3183.266     1.462     1.254      3.486     83.80292  19.2928        284
 3.58   0.0110    470.5653    252.6783  51.79     8257.619     1.802     1.450      3.865     83.77448  18.2579        285
 6.42   0.1441    449.5158   1353.0117   0.90     631.2132     0.774     0.500      3.380     83.78396  21.0496        286
 4.34   0.0403    460.4968    723.4984 -11.52     2258.339     1.812     1.296      4.859     83.71758  19.6655        287
 3.50   0.0077    471.0944    733.2202 -22.49     11853.53     1.539     1.498      3.450       83.765  17.8654        288
 5.65   0.0631    472.3067   1131.0845  83.07     1439.818     2.225     0.835      5.843     83.70808  20.1542        289
 7.38   0.1672    458.1744   1383.8328 -46.10     544.1141     0.754     0.568      3.470     83.77448  21.2108        290
 4.30   0.0248    488.1921    838.0147 -89.19     3668.177     3.059     1.144      5.750     83.73655  19.1389        291
 5.41   0.0663    466.0153   1196.9625  69.90     1373.745     1.187     1.155      4.352     83.81239  20.2052        292
 3.50   0.0060    476.9968    921.4108 -29.52     15224.76     1.554     1.492      3.386     83.75552  17.5936        293
 5.31   0.1066    464.7791    559.6370  29.06     854.2297     0.976     0.941      3.542     83.81239  20.7211        294
 6.72   0.0796    464.5786    127.0419   1.49     1144.036     1.135     0.944      5.033     83.80292  20.4039        295
 4.29   0.0082    495.0847   1185.2677 -27.37     11079.92     3.570     2.495      8.938     83.73655  17.9387        296
 3.79   0.0154    477.1317   1275.4792  28.82     5907.962     1.446     1.376      3.627     83.72706  18.6214        297
 5.98   0.0809    471.8902    780.0573   2.74     1123.792     1.088     0.935      5.096     83.73655  20.4233        298
 7.44   0.0510    487.8899    422.9886 -48.30     1784.616     1.701     0.984      8.852     83.77448  19.9211        299
 3.60   0.0557    478.1534    680.9650 -64.90     1634.658     1.461     1.071      3.650     83.81239  20.0164        300
 4.00   0.0783    475.0726   1166.8925   1.25     1161.688     1.114     1.099      3.215     83.74603  20.3873        301
 6.34   0.2520    468.3778    662.1902  17.81     361.0443     0.748     0.449      2.424     83.78396  21.6561        302
 3.50   0.0141    483.0456   1069.0903  -3.08     6433.317     1.380     1.345      3.135     83.72706  18.5289        303
 6.47   0.0675    480.0155   1518.1871 -36.50     1348.736     1.487     1.001      6.666     83.78396  20.2252        304
 5.52   0.0575    480.2343   1308.2384   0.78     1581.404     1.206     1.072      4.656     83.79344  20.0524        305
 3.50   0.0015    511.5095   1300.7717 -86.57     61026.06     1.783     1.771      3.719     83.75552  16.0862        306
 4.18   0.0135    503.2634    761.2393  -9.87     6735.374     2.289     2.038      6.466     83.78396  18.4791        307
 5.85   0.1375    485.3267    826.9921  67.42     661.8054     0.897     0.684      3.438     83.81239  20.9982        308
 3.78   0.0066    514.5527   1459.6421  24.54      13818.7     4.804     1.835      9.574     83.80292  17.6988        309
 5.00   0.1077    492.2603    572.8713 -26.66     844.7802     1.045     0.854      3.107     83.75552  20.7331        310
 5.07   0.0353    500.9030   1308.7729 -78.62     2574.005     1.327     1.225      5.125     83.73655  19.5235        311
 3.50   0.0226    501.1404    862.1825  21.91     4022.955     1.340     1.317      3.184     83.78396  19.0386        312
 4.66   0.1030    494.4830   1419.8359  -6.11     883.1327     1.068     0.948      3.385     83.78396  20.6849        313
 3.71   0.0579    497.0426    364.6630   3.18     1570.566     1.185     1.114      2.826     83.77448  20.0599        314
 3.60   0.0133    512.4128   1308.8362  87.94     6863.688     1.482     1.437      3.531     83.80292  18.4586        315
 3.50   0.0001    586.9171   1314.4430 -43.15      1619615     2.422     2.258      3.993     83.75552  12.5265        316
 4.29   0.0234    508.9503    162.6882  -5.14     3884.108     2.454     1.217      5.358     83.74603  19.0768        317
 7.32   0.0812    504.5137    324.4970  71.03     1119.833     0.916     0.902      5.496     83.68911  20.4271        318
 4.20   0.1689    502.0302    441.3327  14.30     538.7833     0.975     0.750      2.259     83.79344  21.2215        319
 3.92   0.0225    512.9186   1177.8134 -27.30     4036.097     1.342     1.259      3.341     83.80292  19.0351        320
 5.02   0.0678    509.0863    451.9476  35.30     1340.716     1.219     1.128      4.164     83.73655  20.2317        321
 4.32   0.1594    504.1009   1567.6394 -14.11     570.3017     0.954     0.745      2.276     83.70808  21.1597        322
 4.03   0.0312    518.2291    640.3262 -26.69     2915.261     1.532     1.378      3.951       83.765  19.3883        323
 6.90   0.1391    508.3430    306.9761  -0.24     654.4113     0.744     0.651      3.576     83.80292  21.0104        324
 4.50   0.0600    517.4140   1517.7860  70.71     1515.653     1.137     1.066      3.634     83.78396  20.0985        325
 4.69   0.0624    519.9241    852.2421   0.04     1457.769     1.235     1.187      4.250       83.765  20.1408        326
 7.17   0.1316    516.0298    165.1891  53.66     691.6901     0.919     0.470      4.844     83.81239  20.9502        327
 7.39   0.1605    519.3243    580.9985  -2.84     567.0856     0.742     0.671      4.079     83.81239  21.1659        328
 6.49   0.1084    527.9760    163.3041  59.16     839.0952     1.193     0.695      4.650       83.765  20.7405        329
 3.50   0.0100    539.3113    998.3491  74.63     9125.367     1.483     1.429      3.420     83.73655  18.1494        330
 3.50   0.0420    535.1611    402.8271  28.42     2166.326     1.644     1.292      3.884     83.82187  19.7107        331
 3.50   0.0000    630.2494    481.5379 -32.96      2505998     2.814     2.630      4.451     83.77448  12.0525        332
 3.67   0.0539    543.0117    932.6339 -65.99     1687.227     2.242     0.933      4.769     83.80292  19.9821        333
 4.27   0.1251    530.8337   1565.1139  31.17     727.3235     0.869     0.842      3.100     83.77448  20.8957        334
 3.50   0.0025    571.8231   1241.3000 -77.75     36989.27     2.038     1.669      3.733     83.72706  16.6298        335
 3.50   0.0073    558.0266   1040.2273  -7.54     12498.57     1.649     1.507      3.615     83.79344  17.8078        336
 4.78   0.1153    545.2867    849.4893  -7.45     788.7426     0.980     0.943      3.012     83.72706  20.8077        337
 5.14   0.0124    573.6470   1335.1353  51.49     7319.528     2.340     1.518      7.826       83.765  18.3888        338
 3.63   0.0105    570.2410     44.1226  49.86     8680.702     2.383     1.604      5.120       83.765  18.2036        339
 3.50   0.0792    554.9999    777.1362  23.72     1149.688     1.100     1.075      2.423     83.84082  20.3986        340
 5.14   0.1027    558.2373   1067.7279  74.41     885.6056     1.376     0.874      4.060     83.78396  20.6819        341
 3.50   0.0018    579.6503    143.1599 -48.59     50037.04     1.725     1.693      3.582     83.78396  16.3018        342
 3.66   0.0037    595.7372    781.1780 -56.39     24557.72     3.984     3.666      9.768     83.81239  17.0745        343
 3.55   0.0106    570.7166   1447.0137  21.20     8613.963     3.129     1.935      6.707     83.80292  18.2120        344
 6.11   0.1524    552.7918    964.5013   0.24     596.8772     0.952     0.725      3.814     83.74603  21.1103        345
 3.50   0.0018    581.1983    317.4514  32.75      49981.6     1.792     1.741      3.686     83.84082  16.3030        346
 6.43   0.0572    558.6420   1404.0443  15.36     1591.156     2.178     0.923     10.715     83.80292  20.0457        347
 5.50   0.1637    553.9773    804.0143 -87.40     555.7261     0.784     0.775      2.839     83.77448  21.1878        348
 4.29   0.0408    563.7604    137.6717 -27.73     2227.502     1.275     1.214      3.823     83.78396  19.6805        349
 3.77   0.1115    562.1314    904.2994  60.07     815.2219     1.031     0.851      2.802     83.73655  20.7718        350
 4.21   0.1413    561.8478    839.1899 -61.35     644.4149     1.314     0.783      3.064     83.82187  21.0271        351
 6.36   0.2545    560.0472   1502.5043  89.86     357.1806     0.783     0.500      2.890     83.69859  21.6678        352
 6.33   0.1062    563.3165   1168.9200 -73.02     856.6624     0.999     0.744      4.114     83.73655  20.7180        353
 4.40   0.0285    575.2334   1000.2487 -16.34      3196.89     1.684     1.580      4.953     83.80292  19.2882        354
 6.75   0.0846    566.4789   1114.5490  65.40     1075.455     0.909     0.900      5.260     83.73655  20.4710        355
 6.85   0.1027    564.9891   1249.5447 -27.72     886.6646     1.041     0.670      4.450     83.83134  20.6806        356
 5.70   0.1201    565.9993    630.5061  -2.49      757.565     0.992     0.772      3.717     83.75552  20.8514        357
 4.81   0.1373    569.1726    112.1811 -50.32     662.9072     0.911     0.851      2.777     83.79344  20.9964        358
 5.94   0.0648    577.0299    737.8967  35.30     1402.672     1.383     1.152      5.456     83.72706  20.1826        359
 9.08   0.1161    569.5020   1108.5065  45.12     782.8688     0.504     0.496      3.026     83.70808  20.8158        360
 5.95   0.0784    578.3694    677.7878  -3.43     1160.716     1.213     1.122      4.881     83.81239  20.3882        361
 6.66   0.0897    573.9882    548.0839  -0.44      1014.23     0.915     0.752      4.846     83.78396  20.5347        362
 5.35   0.0742    577.6382    843.3677  21.53     1226.727     1.545     0.887      5.003     83.79344  20.3281        363
 3.50   0.0273    583.4961     74.2241 -16.70     3336.638     1.322     1.236      3.131       83.765  19.2417        364
 6.00   0.1046    582.9614   1099.5001 -50.62     869.1826     1.056     0.924      4.681     83.70808  20.7022        365
 5.52   0.2133    577.8422    695.0611  44.00     426.5557     0.836     0.659      3.038     83.78396  21.4751        366
 8.92   0.0958    577.2536    480.9903   0.47     950.3173     0.699     0.435      4.196     83.83134  20.6053        367
 5.47   0.0687    584.4695   1171.3883   9.73     1325.501     1.087     0.994      3.665     83.82187  20.2440        368
 4.68   0.2388    581.7790   1485.1768  42.27     381.1398     0.801     0.663      2.360     83.79344  21.5973        369
 6.94   0.1565    582.6660   1183.9520   4.29     581.2724     0.741     0.674      3.960       83.765  21.1390        370
 5.32   0.1796    583.8199    209.8069 -42.27     506.3996     0.796     0.686      2.611     83.75552  21.2888        371
 5.23   0.0815    587.5363   1137.9189  -0.67      1115.88     1.053     0.922      4.305     83.72706  20.4310        372
 3.50   0.0754    997.1730    231.6671 -35.31     1207.477     1.149     1.100      3.012     83.79344  20.3453        373
 4.44   0.1186   1598.8207    709.2975   3.07     614.0438     1.146     0.840      3.198     67.06081  21.0795        374
 3.94   0.0160   1596.6750    653.1274 -15.58     5110.619     2.061     1.927      5.175     75.36985  18.7788        375
 5.60   0.0441   1599.2190     17.0316   3.57     1610.672     1.619     0.795      5.258     65.36948  20.0325        376
 3.56   0.0297   1593.4586    372.2879  57.98     3047.637     1.640     1.347      4.035      83.3658  19.3401        377
 5.54   0.0996    909.3374   1573.8235 -27.17     914.0865     1.073     0.876      3.871     83.81239  20.6475        378
 7.11   0.7257    909.6639    758.6678 -45.16     125.3148     0.578     0.333      2.739     83.73655  22.8050        379
 5.11   0.0769    907.8714      3.6326 -33.39     1029.849     1.219     0.890      3.522     72.92754  20.5181        380
 4.75   0.0786    907.2199    657.8135  39.55     1156.646     1.174     1.115      3.742       83.765  20.3920        381
 7.19   0.1112    907.8801    259.1469  47.10     817.4196     0.836     0.675      4.733     83.72706  20.7689        382
 3.50   0.0000    880.5359    182.0380 -36.97      2530983     3.768     3.384      5.885     83.78396  12.0418        383
 3.89   0.0378    903.5399   1313.7987  84.60     2411.682     1.698     1.165      4.134     83.84082  19.5942        384
 5.13   0.1302    903.1458    733.5557  14.18     698.6809     0.975     0.847      3.589     83.78396  20.9393        385
 3.50   0.0027    899.4399    301.0770  73.75     33148.53     1.683     1.667      3.575       83.765  16.7488        386
 5.35   0.1163    902.6298    120.2576 -59.53     782.6705     0.997     0.787      3.669     83.81239  20.8161        387
 4.04   0.0120    895.2032    537.0064   4.93     7592.121     2.345     1.895      5.726     83.75552  18.3491        388
 5.97   0.3463    899.4494    449.5103 -24.97     262.5379     0.501     0.497      2.026     83.72706  22.0020        389
 5.06   0.3188    898.7358    378.2324 -44.39     285.4171     0.743     0.553      2.443     83.78396  21.9113        390
 4.88   0.0669    896.1893    985.8829 -70.45     1360.618     1.264     1.113      3.415     83.79344  20.2157        391
 4.75   0.0042    877.6211    222.5485  89.23     21805.92     8.409     2.434     16.758     83.80292  17.2036        392
 6.40   0.0878    894.1964   1570.0686 -41.29     1036.826     0.822     0.670      3.955     83.82187  20.5107        393
 3.94   0.0437    892.8959   1424.7267 -18.50     2078.793     1.288     1.213      3.509     83.72706  19.7555        394
 3.50   0.0002    879.3774   1591.1613 -62.85     582970.4     2.135     2.017      3.842     83.80292  13.6359        395
 7.60   0.1356    891.3237   1213.3125 -45.58     670.2429     0.564     0.340      2.380     83.70808  20.9844        396
 4.58   0.0206    887.6108    324.2768  15.54     4418.459     2.254     1.609      5.607     83.83134  18.9368        397
 4.03   0.0226    884.7320   1303.1669  74.24     4026.766     2.172     1.403      4.903     83.80292  19.0376        398
 4.08   0.0698    887.7652    679.4688 -39.55     1303.482     1.357     1.101      3.746     83.79344  20.2622        399
 6.93   0.2426    897.5771    727.8093  19.43     375.1077     0.734     0.455      3.345     83.78396  21.6146        400
 3.67   0.0201    884.8380   1498.8048 -24.85     4536.312     1.336     1.281      3.125     83.78396  18.9082        401
 5.28   0.0339    883.8837    337.3351  18.66      2684.43     1.937     1.260      6.592     83.72706  19.4779        402
 8.05   0.2366    882.3992    443.7480 -17.61     384.9097     0.735     0.458      3.282     83.84082  21.5866        403
 4.92   0.0144    877.1025   1175.5532 -13.24      6292.97     2.087     1.979      7.284     83.67962  18.5529        404
 3.50   0.0697    878.5626    670.3907 -45.07     1306.565     1.548     1.226      3.971     83.80292  20.2597        405
 3.50   0.0345    876.5951    959.5044 -79.21     2633.101     1.298     1.229      3.078       83.765  19.4988        406
 3.50   0.0001    858.3438   1222.9988  25.48      1495914     2.506     2.412      4.044      83.8503  12.6127        407
 4.24   0.0643    875.3625    540.0466 -35.41     1415.509     1.105     1.072      2.924     83.80292  20.1727        408
 3.79   0.0166    866.6870    937.9309  44.80       5490.9     2.483     1.546      5.384     83.71758  18.7009        409
 3.50   0.0646    868.4225    642.1518  64.32     1408.767     1.174     1.094      2.777     83.80292  20.1779        410
 5.74   0.2240    868.9875   1434.7231  86.53     406.5303     0.718     0.689      2.872     83.84082  21.5273        411
 4.18   0.1284    865.7755    453.1805 -42.47     708.6118     1.103     0.916      3.167     83.79344  20.9240        412
 4.05   0.1464    863.9379   1477.7690  55.58     621.5522     0.983     0.882      3.003     83.78396  21.0663        413
 6.78   0.0629    864.8473   1175.9413  16.55     1447.177     1.140     0.950      6.643     83.77448  20.1487        414
 6.14   0.0855    863.4191    353.5639  42.72     1064.704     1.045     0.954      5.044     83.81239  20.4819        415
 6.49   0.1201    863.0830    772.3165  17.58     756.7787     1.061     0.746      4.388     83.71758  20.8526        416
 5.42   0.0733    861.1080    266.5716  30.30     1241.325     1.458     0.973      4.771     83.75552  20.3153        417
 3.76   0.0204    858.6674   1155.9286 -48.65     4457.821     1.409     1.335      3.551     83.71758  18.9272        418
 6.65   0.1640    861.1178    635.1364 -44.46      554.377     0.833     0.680      3.335     83.72706  21.1905        419
 4.20   0.0836    859.6251   1553.0254  17.27     1088.975     1.099     0.932      3.357     83.80292  20.4575        420
 4.18   0.0243    857.5358   1338.0935 -71.37     3741.169     1.582     1.377      4.435     83.75552  19.1175        421
 7.36   0.0931    857.3162    573.3596 -45.03     977.5126     1.099     0.647      4.872     83.77448  20.5747        422
 4.73   0.0532    854.7966    543.6133 -69.35     1709.833     1.437     1.235      4.682     83.75552  19.9676        423
 9.24   0.1304    854.5144   1428.4879  44.74     697.3732     0.503     0.496      3.019     83.72706  20.9413        424
 6.94   0.0993    854.1335   1346.3152 -20.02     915.8406     0.909     0.683      4.945     83.72706  20.6454        425
 4.58   0.1987    849.9979   1302.0090  42.45     457.6887     0.798     0.763      2.526     83.75552  21.3986        426
 7.12   0.1163    846.8488   1562.1501  45.17     782.9232     0.834     0.674      4.323     83.82187  20.8157        427
 5.92   0.0464    845.6445    359.7645   5.04     1960.387     1.992     1.388      7.607     83.82187  19.8191        428
 3.50   0.0326    843.8990   1062.4214 -47.16     2785.655     1.301     1.216      3.140     83.72706  19.4377        429
 3.67   0.0147    842.4068   1104.7156  21.78     6174.011     1.862     1.499      4.424     83.77448  18.5736        430
 4.98   0.0087    836.8883   1245.4850 -32.05     10419.31     2.491     2.004      8.762     83.72706  18.0054        431
 6.17   0.2283    840.1484    545.8178 -42.72     398.6262     0.754     0.569      2.861     83.80292  21.5486        432
 4.78   0.0803    836.7659    990.3766  -5.11     1133.938     1.225     1.117      4.269     83.79344  20.4135        433
 8.14   0.1104    837.4343    898.6921 -58.58     823.7352     0.978     0.551      4.635     83.73655  20.7605        434
 3.52   0.0120    835.5318    297.0812 -64.89     7559.236     1.452     1.419      3.371     83.72706  18.3538        435
 3.95   0.0772    835.7798   1519.0117 -23.38     1178.268     1.097     1.040      2.571       83.765  20.3719        436
 3.50   0.0487    834.6545    817.6158  -7.21     1868.994     1.254     1.120      3.023     83.81239  19.8710        437
 3.72   0.0065    868.4527   1102.0677 -58.47     14021.74     2.082     1.859      4.976     83.74603  17.6830        438
 5.90   0.1462    830.7017    403.0029  -2.39     622.1194     0.734     0.666      3.140     83.75552  21.0653        439
 3.50   0.0027    822.0500    652.7532 -52.62     33986.75     1.701     1.691      3.602     83.81239  16.7217        440
 7.20   0.2653    825.9781    597.2470  88.91     343.0684     0.685     0.431      2.793     83.80292  21.7115        441
 5.28   0.1623    823.8243    673.1552 -46.25     560.9448     0.749     0.571      2.268     83.81239  21.1777        442
 5.00   0.1444    821.0287    328.9834 -51.85     630.2371     0.788     0.765      2.713     83.79344  21.0512        443
 3.50   0.0990    818.8474   1397.0322 -31.82     919.3251     1.108     1.032      2.599     83.80292  20.6413        444
 3.85   0.1463    818.0057    777.8375 -67.26     621.9357     1.239     0.766      3.159     83.78396  21.0656        445
 3.88   0.0827    817.8771    701.1688  40.94     1100.288     1.104     1.007      3.107     83.77448  20.4462        446
 7.83   0.1363    818.6559   1574.2931  47.62     667.1565     0.564     0.339      3.079     83.73655  20.9894        447
 4.00   0.0504    814.7400    876.8964  77.42     1804.801     1.579     1.451      4.489     83.71758  19.9089        448
 3.50   0.1330    816.2355    432.0098 -17.05     684.2211     1.160     0.868      2.473     83.79344  20.9620        449
 3.71   0.0698    808.9398   1543.1682  66.66     1303.808     1.106     1.010      2.512     83.79344  20.2620        450
 5.37   0.1558    808.6687    842.8378 -68.45     584.0687     0.893     0.680      3.078     83.78396  21.1338        451
 3.50   0.0029    802.1561   1377.2687 -69.34     31110.16     1.723     1.626      3.590       83.765  16.8177        452
 3.50   0.0010    797.5828    694.0785 -87.88     89872.38     2.521     1.785      4.818     83.80292  15.6659        453
 3.50   0.0062    799.6658     39.3432 -29.18     14578.33     1.733     1.515      3.620     83.75552  17.6407        454
 7.40   0.1158    800.9561   1595.2843 -83.77     746.9681     0.735     0.666      4.408     79.65314  20.8667        455
 5.69   0.1150    797.9482    177.0328  89.96     791.7808     1.061     0.726      3.238     83.81239  20.8035        456
 4.69   0.0642    793.4384    293.9872 -85.78     1416.712     1.408     1.180      4.838     83.81239  20.1718        457
 5.05   0.1785    788.6844    407.2916  46.63     509.2101     0.932     0.749      3.230     83.71758  21.2828        458
 5.48   0.1763    785.3309   1347.5808  22.57     516.3275     0.899     0.788      3.606     83.83134  21.2677        459
 3.56   0.0068    773.3043   1425.9481 -89.25     13278.09     3.750     2.204      8.031     83.71758  17.7422        460
 6.56   0.1750    780.4772   1265.1068  -1.37     519.4756     0.771     0.499      3.039     83.72706  21.2611        461
 8.48   0.1280    777.2938    475.3512 -42.18     710.5353     0.567     0.338      3.401     83.71758  20.9210        462
 3.96   0.0447    766.9832    138.3622 -60.94     2036.479     1.496     1.333      4.127     83.81239  19.7778        463
 3.67   0.0129    765.5649    390.1940  -2.87     7039.617     1.469     1.420      3.562     83.79344  18.4311        464
 5.43   0.0917    766.4203    928.8621  17.25     992.8105     1.177     0.979      4.208     83.80292  20.5578        465
 4.08   0.1334    763.4435    565.8588 -13.47     681.7573     1.026     0.929      2.839     83.77448  20.9659        466
 6.72   0.2249    762.5083   1570.5126 -45.36     404.1763     0.503     0.496      2.122     83.70808  21.5336        467
 4.22   0.0636    756.6255   1339.8118 -44.25     1430.978     2.002     1.006      4.621     83.77448  20.1609        468
 6.65   0.1292    757.2419    104.2812 -82.72     704.1517     0.918     0.632      3.522     83.75552  20.9308        469
 4.66   0.0352    753.7518    194.1373  70.38     2583.812     2.004     1.746      6.263       83.765  19.5193        470
 4.80   0.1143    751.5210   1078.7631 -58.73     795.9286     1.015     0.781      3.487     83.75552  20.7978        471
 6.62   0.0825    751.7948    431.6564 -65.66     1103.953     0.990     0.893      5.322      83.8503  20.4426        472
 7.99   0.0761    746.7986    443.8998  61.00      1195.75     0.998     0.758      5.879     83.74603  20.3559        473
 7.28   0.3909    746.6627   1108.6885 -46.23     232.6545     0.569     0.337      2.359     83.73655  22.1332        474
 7.69   0.0405    743.7292    839.2839  44.04     2245.365     1.422     1.371      8.534     83.71758  19.6718        475
 3.50   0.0116    741.7888    554.6887 -46.92     7815.554     1.505     1.450      3.526     83.78396  18.3176        476
 6.50   0.1282    745.5015    364.0371  -1.88     709.2607     0.776     0.500      3.300     83.69859  20.9230        477
 3.50   0.0000    723.1733    403.1625 -38.65      1951242     2.657     2.350      4.111     83.79344  12.3242        478
 4.91   0.1463    738.4103   1271.2405  56.26     622.1636     1.037     0.800      3.059     83.79344  21.0652        479
 3.76   0.0294    737.0958   1156.6532 -47.58      3096.29     1.281     1.247      3.070     83.72706  19.3229        480
 3.87   0.0280    735.1339    648.1766  23.49     3253.487     1.280     1.262      3.303     83.80292  19.2691        481
 3.50   0.0003    725.6390    846.8148  -4.11     347563.8     2.062     2.033      3.840     83.81239  14.1974        482
 7.17   0.0803    728.8027    751.6425  70.75     1133.034     1.122     0.877      5.823     83.81239  20.4144        483
 3.50   0.0159    726.5377   1176.7671 -12.69     5717.448     1.411     1.372      3.300     83.78396  18.6570        484
 4.66   0.1808    727.9813   1542.4713  -1.07     503.6676     0.809     0.691      2.751     83.83134  21.2946        485
 3.83   0.0403    720.4841   1393.5349   9.72     2256.885     1.467     1.242      3.736     83.72706  19.6662        486
 6.38   0.2265    721.2885    260.9367  -8.71     401.5038     0.739     0.673      3.344     83.74603  21.5408        487
 5.88   0.2284    740.3921    918.1597  19.20     398.4349     0.761     0.444      2.210     83.80292  21.5491        488
 3.50   0.0127    714.8723    806.8587 -16.74     7180.677     1.451     1.408      3.410     83.74603  18.4096        489
 7.29   0.0786    739.9937    370.4539   0.01      1158.69     0.825     0.690      4.951     83.85976  20.3901        490
 3.50   0.0126    708.0434   1162.3575  15.51     7237.244     1.443     1.401      3.311     83.78396  18.4011        491
 5.93   0.1210    709.3591    193.3632  45.70     752.4851     1.026     0.876      3.988     83.82187  20.8588        492
 4.14   0.0105    703.2103   1337.6471 -71.72      8671.03     2.232     1.846      6.054     83.82187  18.2048        493
 5.46   0.0739    706.7255    537.0632  22.78     1229.935     1.109     1.008      4.977     83.73655  20.3253        494
 3.50   0.0070    701.9611    950.9947 -43.79      13076.3     1.639     1.516      3.646     83.79344  17.7588        495
 7.39   0.2056    702.3176    632.3156 -45.10      442.125     0.563     0.341      2.655     83.71758  21.4361        496
 5.80   0.2507    700.5140    649.9135  -0.13     362.7155     0.779     0.500      2.340     83.71758  21.6511        497
 4.32   0.0268    698.0168    581.0302   9.81     3393.465     2.375     1.335      5.493     83.81239  19.2234        498
 6.55   0.1752    696.1909   1199.1677  41.45      519.447     0.741     0.566      3.786     83.78396  21.2611        499
 5.28   0.1864    695.3126    275.2812 -45.20     487.8976     0.919     0.741      3.682     83.73655  21.3292        500
 4.12   0.0250    690.8043   1212.2382  38.83     3639.383     1.656     1.406      4.679     83.78396  19.1474        501
 4.41   0.0328    685.6290   1212.3180 -31.36     2770.724     1.336     1.159      3.763     83.78396  19.4435        502
 3.54   0.0517    690.9828    314.4811 -89.34     1762.085     1.363     1.269      3.517     83.81239  19.9349        503
 5.58   0.0089    682.1815    470.6699 -71.25     10273.83     3.997     3.773     16.606     83.82187  18.0207        504
 8.13   0.1704    688.3418    666.6924  46.63     533.7071     0.569     0.337      3.009     83.71758  21.2317        505
 3.50   0.0084    684.5341    642.6834 -85.70     10804.35     1.677     1.518      3.822     83.70808  17.9660        506
 3.50   0.0567    686.5600    129.1386 -74.02     1605.751     1.213     1.118      2.846     83.78396  20.0358        507
 7.14   0.1996    686.3936   1043.2445  19.21     456.1164     0.756     0.445      2.661     83.81239  21.4023        508
 4.64   0.0090    680.1719    541.9000 -72.99     10137.32     2.845     2.013      8.091     83.71758  18.0352        509
 6.08   0.0666    684.0917    399.3588  67.60     1365.426     1.243     1.072      5.293     83.70808  20.2118        510
 7.31   0.2005    683.1840   1564.3816  71.56     453.7787     0.750     0.447      3.603     83.78396  21.4079        511
 7.70   0.1186    681.9842    388.5002 -87.74     766.8148     0.807     0.499      3.902       83.765  20.8383        512
 6.79   0.1773    676.4925    199.9110   0.69     512.7004     0.787     0.500      3.157     83.70808  21.2753        513
 6.35   0.1582    674.9564   1162.9944   2.98     575.4987     0.792     0.783      3.936     83.81239  21.1499        514
 5.27   0.0787    671.8871    229.7756 -40.14     1156.095     1.169     1.030      4.351     83.77448  20.3925        515
 6.88   0.3712    672.5187    424.4439 -49.40     245.0167     0.507     0.489      2.401     83.74603  22.0770        516
 5.53   0.0367    668.2863   1219.9636 -52.73     2477.898     1.505     1.346      6.337     83.77448  19.5648        517
 7.54   0.0904    668.8893    526.1393  47.57     1005.669     0.840     0.672      4.888     83.74603  20.5439        518
 4.82   0.0901    665.7657   1178.5731   3.32     1010.373     0.954     0.918      3.100     83.79344  20.5388        519
 4.90   0.1838    665.4871   1068.5939  69.03     494.8567     0.931     0.807      3.337     83.77448  21.3138        520
 6.86   0.3208    661.6160     80.7631  17.24      283.703     0.744     0.454      2.642     83.81239  21.9178        521
 3.50   0.0003    647.4363   1462.9254 -64.41     342139.8     2.018     1.955      3.774       83.765  14.2145        522
 3.93   0.0268    653.7332    869.3082 -77.19     3390.807     1.333     1.243      3.529     83.74603  19.2242        523
 6.76   0.0676   1533.4886    973.8960 -50.72     1345.206     1.369     0.971      6.500     83.68911  20.2280        524
 7.63   0.0999    646.2842   1152.9969   7.20     910.5976     0.748     0.678      4.488     83.77448  20.6517        525
 4.38   0.0474    644.7533    651.3694 -64.65     1919.349     1.230     1.185      3.834     83.82187  19.8421        526
 3.50   0.0017    638.8298    535.1763  50.02     53649.83     1.838     1.771      3.746     83.77448  16.2261        527
 4.27   0.0661    640.3396    274.9371 -42.66     1376.463     1.232     1.077      3.436     83.75552  20.2031        528
 7.94   0.0777    636.8403    551.5649  84.77     1172.086     1.262     0.484      6.095     83.81239  20.3776        529
 7.52   0.1246    638.2928    390.9521  -9.02     729.8717     0.744     0.677      4.465     83.71758  20.8919        530
 4.96   0.1525    630.2939    853.7196 -14.08     596.1974     0.980     0.851      3.481     83.72706  21.1115        531
 3.50   0.0265    629.7246    804.6202  19.19     3432.345     1.308     1.237      3.005     83.81239  19.2110        532
 5.71   0.1866    628.1733    940.8096  43.14     487.6896     0.793     0.684      3.034     83.78396  21.3296        533
 7.15   0.2420    625.9575    131.7406 -87.62     375.9547     0.677     0.438      2.518     83.77448  21.6122        534
 3.50   0.0157    622.6840   1580.3485  20.28     5789.113     1.414     1.383      3.280     83.72706  18.6435        535
 8.00   0.1448    625.4883   1286.4780  45.77     627.9775     0.506     0.493      3.036     83.70808  21.0551        536
 8.68   0.1315    624.0000    341.9937   0.00     691.6694     0.858     0.289      3.619     83.74603  20.9503        537
 7.52   0.0810    649.6454   1159.5402 -17.03     1122.761     0.987     0.832      5.920       83.765  20.4243        538
 4.96   0.0314    617.2538   1150.4204 -12.75     2901.499     2.287     1.393      6.232     83.80292  19.3934        539
 6.66   0.0927    618.5089     93.3388 -32.37      980.982     1.211     0.851      5.248     83.74603  20.5708        540
 3.94   0.1390    615.0223   1233.4691  87.76      654.722     1.100     0.935      2.791     83.81239  21.0099        541
 5.29   0.2588    615.6664    117.0446  -5.76     351.4883     0.738     0.663      2.590       83.765  21.6852        542
 6.09   0.0740    612.8040   1366.5983  39.27     1228.659     1.171     0.988      5.316       83.765  20.3264        543
 7.68   0.1695    614.2545    288.0167  -0.90     536.9847     0.679     0.435      3.458     83.81239  21.2251        544
 4.91   0.1396    610.5709    994.0137  -0.22     651.9244     1.148     0.951      3.719     83.81239  21.0145        545
 8.13   0.0597    608.3402   1334.2922 -68.31     1523.896     1.306     0.899      7.835     83.73655  20.0926        546
 5.46   0.3838    610.2504    961.5877 -71.92     237.1904     0.706     0.464      2.215     83.82187  22.1123        547
 4.16   0.0728    608.4410    943.8952  30.88     1249.541     1.092     0.996      2.927     83.70808  20.3081        548
 5.55   0.1691    606.6353   1009.8097 -69.38     538.2969     0.873     0.677      3.555     83.79344  21.2224        549
 3.53   0.0150    604.6259    584.8419 -61.11      6052.36     1.443     1.381      3.393     83.83134  18.5952        550
 5.81   0.0923   1503.3109   1310.4329  16.06     985.8394     0.983     0.947      4.455     83.75552  20.5655        551
 3.96   0.0171   1545.0631    861.9321  46.11     5308.615     1.840     1.611      4.748     83.74603  18.7375        552
 7.45   0.0882    603.2000    511.9024 -30.59       1030.9     1.053     0.647      5.236     83.74603  20.5170        553
 6.56   0.1087    601.7997    763.1479  43.14     837.7535     0.823     0.670      4.185     83.84082  20.7422        554
 5.31   0.0985    599.8062   1424.6854  18.29     923.3785     0.989     0.881      3.398     83.77448  20.6365        555
 6.79   0.1364    598.3499    666.8875 -73.86     666.5421     1.018     0.751      4.494     83.73655  20.9904        556
 7.22   0.1606    595.8287   1124.1578 -45.06     566.7516     0.754     0.572      3.278     83.81239  21.1665        557
 5.63   0.0908    592.9840    881.1221  89.40     1002.599     1.257     0.890      4.256     83.80292  20.5472        558
 8.67   0.0840    592.3361   1355.7000  46.86     1083.219     0.564     0.340      3.382     83.73655  20.4632        559
 5.13   0.0567   1592.2811   1383.3767 -13.23     1604.943     1.487     1.105      4.756     83.77448  20.0364        560
 5.46   0.1023   1537.7726    504.2819 -81.92     889.5679     1.314     0.918      4.192     83.78396  20.6771        561
 6.43   0.3705   1588.4667   1334.4884  43.34     245.4777     0.508     0.491      2.481     83.74603  22.0750        562
 7.02   0.1873   1551.2142    131.4193  70.62     485.6294     0.739     0.454      2.621     83.77448  21.3342        563
 6.34   0.1594    914.5125    124.0380 -87.80     570.5777     0.795     0.699      3.709       83.765  21.1592        564
 3.56   0.0131   1583.8901   1107.3706  31.05      6930.64     1.439     1.413      3.380     83.75552  18.4481        565
 3.99   0.0360    911.3047    999.6408  25.14     2528.961     1.228     1.183      3.070     83.71758  19.5426        566
 4.90   0.0875   1590.2817    565.3278  11.70     1038.937     1.032     0.899      2.581     83.71758  20.5085        567
 3.50   0.0219    911.7652    836.9797  46.82     4161.618     1.343     1.296      3.123     83.80292  19.0018        568
 3.50   0.0070   1541.5651    652.9879 -80.24     12953.04     1.572     1.520      3.544     83.80292  17.7691        569
 5.36   0.7944   1553.0010   1370.2423 -89.95      114.583     0.684     0.428      1.887     83.81239  22.9022        570
 4.89   0.1777   1570.4656   1337.0802  49.64     511.7585     0.857     0.675      2.834     83.72706  21.2773        571
 5.76   0.0854    913.6678   1117.9517   2.16     1065.025     1.082     1.049      4.477       83.765  20.4816        572
 5.56   0.0675   1561.7994    384.6131 -75.58     1347.813     1.476     0.890      5.758     83.78396  20.2259        573
 5.30   0.0568   1584.9180   1068.0917 -36.80     1601.147     1.155     1.083      4.299     83.75552  20.0389        574
 5.98   0.1741    916.5121   1111.4973 -71.08     522.1467     0.937     0.420      2.515     83.68911  21.2555        575
 6.59   0.1289   1585.3274    639.9982   1.63     706.2399     0.742     0.664      3.870     83.82187  20.9276        576
 3.50   0.0051   1540.7145    133.3124 -50.71     17913.32     1.564     1.554      3.479     83.72706  17.4171        577
 3.72   0.0695   1580.4880   1412.9047  69.04     1307.532     1.381     1.137      3.297     83.68911  20.2589        578
 7.90   0.2178   1556.4828    736.5074 -43.82      417.617     0.503     0.497      3.017     83.74603  21.4981        579
 3.87   0.0956   1574.3569   1489.9440   4.25      951.848     1.022     0.938      2.350     83.77448  20.6036        580
 3.99   0.0360   1514.5411   1545.7484  75.59     2523.833     1.713     1.256      4.223     83.75552  19.5448        581
 3.50   0.0003   1562.5902    302.4592 -49.50     302894.2     1.981     1.944      3.778     83.84082  14.3468        582
 3.55   0.0082   1565.5569     20.1926 -73.30     11119.06     1.533     1.499      3.438     83.80292  17.9348        583
 3.50   0.0106   1569.3970     90.9337 -30.49     8595.286     1.511     1.425      3.402     83.83134  18.2143        584
 3.50   0.0010   1551.5663    680.5849 -23.92     91451.24     4.963     4.156     10.998     83.79344  15.6470        585
 3.67   0.0121   1564.7480    782.9547 -73.93     7537.398     2.173     1.589      4.973     83.79344  18.3569        586
 3.96   0.1305   1561.7164   1564.7347  83.74     696.5396     1.068     0.926      3.082     83.71758  20.9426        587
 3.50   0.0169   1560.2748    859.8225  73.43     5377.624     1.395     1.346      3.290     83.80292  18.7235        588
 3.50   0.2517   1551.0110   1512.0599  29.59     361.6491     0.781     0.773      2.289     83.83134  21.6543        589
 3.50   0.0003   1557.0215    485.9543 -57.57     300389.7     1.991     1.950      3.740     83.80292  14.3558        590
 3.93   0.1567   1537.6398    261.7019  47.27     580.2343     0.972     0.868      2.627     83.71758  21.1410        591
 4.31   0.1873   1550.4930    350.8476  52.56     485.2948     0.879     0.671      2.668     83.71758  21.3350        592
 6.54   0.1183   1553.0337   1231.4982  -0.59      768.135     0.811     0.695      4.425     83.69859  20.8364        593
 3.68   0.0498   1535.2637   1427.3330 -46.27     1825.538     2.123     1.077      4.531     83.73655  19.8965        594
 6.78   0.8509   1540.4457    328.4951  25.93     106.8347     0.501     0.496      2.275     83.70808  22.9782        595
 6.09   0.1224   1450.3645   1223.7706 -72.33     743.2092     1.128     0.669      4.139     83.78396  20.8722        596
 4.16   0.0383   1549.9670   1220.5962 -11.51     2378.364     1.264     1.125      3.560     83.80292  19.6093        597
 4.01   0.0787   1522.6630    377.0125  59.76     1157.275     1.735     0.951      3.998     83.81239  20.3914        598
 4.91   0.1097   1534.7495    918.2697 -19.33     828.7452     0.935     0.832      3.143     83.74603  20.7539        599
 4.61   0.0646   1518.0699     83.4022   9.88     1408.911     1.318     1.191      3.920     83.82187  20.1778        600
 4.23   0.0336   1531.5778    414.1128  13.39     2708.057     1.677     1.487      4.859     83.78396  19.4684        601
 5.56   0.0669   1527.3539    731.6343  62.03     1361.116     1.327     1.082      4.477     83.81239  20.2153        602
 5.32   0.0723   1521.5106     12.5315  -7.76     1257.154     1.017     0.992      3.523     83.72706  20.3015        603
 8.01   0.2388   1493.2001    870.4006  70.78     381.1623     0.764     0.445      3.494     83.80292  21.5972        604
 3.99   0.0406   1513.5579    481.9728 -80.06     2244.607     1.223     1.123      3.107     83.83134  19.6721        605
 3.50   0.0023   1513.8682    390.9596   2.32     40338.68     1.709     1.671      3.541     83.78396  16.5357        606
 5.32   0.1532   1526.0801    877.5831 -18.35     593.9579     1.002     0.726      3.420     83.80292  21.1156        607
 4.68   0.0508   1487.1720     76.3101  -5.75     1790.753     1.301     1.181      3.361     83.75552  19.9174        608
 3.50   0.0221   1503.1475    721.7911 -72.44     4120.635     1.380     1.324      3.291     83.83134  19.0126        609
 4.72   0.0460   1519.0063   1099.2742 -87.46      1977.89     1.626     1.220      4.899     83.83134  19.8095        610
 7.91   0.1878   1511.3092      3.6534  43.28     421.8739     0.572     0.336      2.193     72.93844  21.4870        611
 6.27   0.1483    918.8821   1343.1436  45.01     613.3259     0.824     0.663      4.024     83.74603  21.0808        612
 5.33   0.0820   1502.9550   1095.0253 -26.75      1109.83     1.109     0.888      3.512     83.82187  20.4369        613
 3.50   0.0006   1506.1284    267.6196 -39.06     164096.1     1.890     1.876      3.715     83.83134  15.0123        614
 3.50   0.0319   1481.3833    573.6016 -45.53     2855.446     2.213     1.470      4.926       83.765  19.4108        615
 5.35   0.1458   1501.3430   1412.0780  75.35     623.8566     1.029     0.740      3.094       83.765  21.0623        616
 5.43   0.0486    915.7727    251.4663  56.44     1870.902     1.873     1.097      6.534     83.78396  19.8699        617
 3.50   0.0687   1497.7295    842.8806  35.10     1324.544     1.131     1.083      2.792     83.73655  20.2448        618
 4.09   0.1311    931.4003   1116.4285 -40.25     694.0156     1.036     0.947      2.987     83.75552  20.9466        619
 7.42   0.3105   1496.3085   1123.3169 -44.54     292.9049     0.559     0.342      2.269     83.73655  21.8832        620
 6.18   0.0535    921.4901   1197.6259 -53.94     1699.862     1.657     1.149      7.074       83.765  19.9740        621
 4.53   0.0805   1437.7632    645.7658   2.75     1130.562     1.329     0.990      4.008     83.82187  20.4168        622
 6.05   0.1783   1495.3975    928.7016 -57.86     510.1504     0.909     0.546      4.294     83.75552  21.2808        623
 5.31   0.0929   1466.6744   1126.9293  27.03     978.3999     1.258     0.872      3.845     83.71758  20.5737        624
 4.37   0.2100   1497.0087   1231.3116 -88.43     433.3642     0.733     0.664      2.296     83.78396  21.4579        625
 4.70   0.0315   1474.0746    996.8602 -16.36     2890.549     2.590     1.317      7.526     83.75552  19.3975        626
 6.97   0.1843    924.5815    309.2061 -20.12     493.5151     0.742     0.450      2.811       83.765  21.3167        627
 3.97   0.0998    924.8867     44.8511 -26.12     911.3549     1.060     0.954      3.219     83.73655  20.6508        628
 7.02   0.2322   1482.3333    766.6622  44.81     391.6186     0.579     0.332      2.538     83.74603  21.5678        629
 5.83   0.2282    924.0271    932.7233  87.69     398.6861     0.729     0.685      2.870     83.77448  21.5484        630
 4.61   0.0921   1475.9445    197.0222   9.99     988.0209     1.192     0.971      3.620     83.81239  20.5631        631
 3.65   0.0157    927.3818   1321.0515 -60.20       5804.5     1.433     1.344      3.496     83.80292  18.6406        632
 8.06   0.4426   1470.6782    428.6792 -45.05     205.5053     0.567     0.339      2.837     83.74603  22.2679        633
 5.40   0.1634   1496.5206    671.9360   1.87     556.3146     0.770     0.499      2.152     83.71758  21.1867        634
 6.68   0.1104   1477.1406   1022.3224  47.76     824.1075     1.154     0.627      4.335     83.74603  20.7600        635
 3.50   0.0010   1418.4011   1124.8586 -77.49     93544.88     2.022     1.866      3.943     83.84082  15.6224        636
 8.12   0.0941   1451.5862   1163.1904 -20.41     966.1615     0.763     0.442      4.126     83.75552  20.5874        637
 5.83   0.1565    946.8134     42.6076  50.12     580.8675     1.105     0.675      3.753     83.72706  21.1398        638
 5.27   0.0738   1402.8489   1361.6335 -74.33     1232.881     1.115     0.938      4.450     83.80292  20.3227        639
 5.49   0.0640    946.4409    131.7579 -14.69     1422.764     1.108     1.032      4.683     83.80292  20.1672        640
 7.16   0.1326   1474.9755   1569.0132  31.13     686.2632     0.800     0.795      4.504     83.77448  20.9588        641
 5.21   0.1140    925.0620    664.6942  35.82     797.4747     0.997     0.819      3.706     83.73655  20.7957        642
 5.40   0.0931    940.5189    724.4358  41.32     977.5348     1.064     1.034      4.039     83.77448  20.5747        643
 3.50   0.1546   1452.4904    389.9434  -2.31     588.2576     1.051     0.921      2.405     83.73655  21.1261        644
 4.82   0.0242    937.3098    514.6938  60.38     3751.095     2.256     1.650      6.796     83.70808  19.1146        645
 3.50   0.0012    928.7859   1176.9735 -63.34     77905.29     1.788     1.770      3.621     83.78396  15.8211        646
 4.99   0.1614   1456.7534    610.2356 -77.31     563.9055     0.967     0.854      2.730     83.81239  21.1720        647
 3.50   0.0443    946.7559    443.5303 -11.64     2052.399     1.245     1.172      3.288       83.765  19.7693        648
 4.15   0.0403   1437.7389   1269.7083 -34.43     2255.931     1.244     1.181      3.666     83.75552  19.6667        649
 3.55   0.0092    938.2715   1065.6440  74.35     9862.352     1.516     1.424      3.424     83.75552  18.0650        650
 6.58   0.4924   1453.9989    921.0148   0.10     184.7146     0.618     0.610      3.232     83.75552  22.3837        651
 8.04   0.1855   1454.6998   1143.3197  43.89     489.9468     0.557     0.343      3.140     83.67961  21.3246        652
 3.50   0.0393   1431.2603    339.1749  19.84     2316.174     1.931     1.296      4.084     83.80292  19.6381        653
 6.94   0.2984   1453.4241    165.2227  19.37     304.9627     0.747     0.453      2.784     83.80292  21.8394        654
 4.67   0.0758    948.6108    265.9981  16.72     1200.015     1.079     0.933      3.250     83.75552  20.3520        655
 3.50   0.0069   1438.7891    617.5158  -9.75     13259.86     1.518     1.457      3.265     83.78396  17.7437        656
 3.50   1.7527   1436.2822    385.9742 -10.44     51.90832     0.726     0.665      1.999     83.77448  23.7619        657
 4.85   0.1472    949.4341    825.3799 -67.70     618.0731     0.963     0.841      3.581     83.79344  21.0724        658
 3.50   0.0001   1433.4287   1089.0946 -40.78     734727.6     2.216     2.101      3.871     83.74603  13.3847        659
 4.96   0.0649    951.0420     59.8504 -55.61     1402.347     1.223     1.146      4.379     83.80292  20.1829        660
 4.48   0.0131    985.7009    452.4940  66.36     6942.116     2.192     1.917      6.726     83.69859  18.4463        661
 4.81   0.1296   1448.4435     86.3038 -75.48     701.6606     0.964     0.937      2.980     83.70808  20.9347        662
 5.81   0.1550    958.6643    891.9353   5.72     586.7618     0.739     0.656      3.343     83.73655  21.1288        663
 6.70   0.1342    952.3122   1502.9946   2.63     678.0838     0.732     0.667      3.386       83.765  20.9718        664
 6.60   0.1359    962.8923    422.3037  19.58     668.8024     0.935     0.675      4.063     83.69859  20.9868        665
 3.81   0.0609   1445.3502    729.8088 -28.36     1495.613     1.132     1.047      2.853     83.82187  20.1130        666
 8.96   0.1341   1431.5128   1278.9904 -32.00     678.4399     0.800     0.312      4.351     83.78396  20.9712        667
 6.33   0.2316    975.5884     70.2583 -18.53     393.0501     0.739     0.456      2.729     83.82187  21.5639        668
 5.21   0.2477   1422.9612   1595.5355  27.20     346.1887     1.054     0.653      3.165     78.97216  21.7017        669
 3.50   0.0051   1434.2783    223.0297 -38.73     18000.71     1.575     1.529      3.441       83.765  17.4118        670
 3.68   0.0214    949.7264    652.6766  89.27     4241.281     2.209     1.529      5.108     83.73655  18.9813        671
 6.10   0.2417    954.1638   1027.8688  44.93     376.5462     0.809     0.675      3.812     83.79344  21.6105        672
 6.84   0.1379    983.8214    952.2770 -36.11     659.6571     1.047     0.527      5.274     83.79344  21.0017        673
 5.98   0.0633   1391.8539   1532.9331 -74.35     1437.015     1.314     1.120      5.792     83.75552  20.1563        674
 3.50   0.0070   1407.1237    306.5707 -33.37     12960.94     1.524     1.452      3.310     83.77448  17.7684        675
 3.94   0.0412    964.0480    414.7322 -20.48     2207.674     1.256     1.116      3.134       83.765  19.6902        676
 6.92   0.0829    973.0498    546.6980 -15.16     1095.621     1.003     0.749      4.972     83.67962  20.4508        677
 3.50   0.0825   1435.2114   1345.9427 -76.43     1103.972     1.103     1.098      2.667     83.82187  20.4426        678
 5.44   0.1927    976.1675   1279.1414 -43.84     472.3213     0.813     0.681      2.721     83.80292  21.3644        679
 3.50   0.0006    983.9273    556.8638 -47.92     151637.4     1.891     1.871      3.712     83.72706  15.0980        680
 6.11   0.0929   1410.6138    365.7228 -69.34     980.3746     2.048     0.652      5.744     83.83134  20.5715        681
 5.38   0.1191   1387.7228   1583.7048   3.16     763.0148     0.928     0.853      3.356     83.70808  20.8437        682
 3.62   0.0106   1414.4304   1385.1575  32.96     8604.312     1.424     1.390      3.284     83.82187  18.2132        683
 5.58   0.3237    977.7038   1064.9983  -4.34     281.0632     0.728     0.665      2.579     83.77448  21.9280        684
 5.97   0.2128   1419.1465    428.0791 -41.74     427.3077     0.853     0.657      3.351     83.73655  21.4731        685
 6.80   0.1373   1417.7028    105.0311 -11.65     662.0588     0.750     0.672      3.847     83.71758  20.9978        686
 5.35   0.0758    981.3090   1485.5173 -20.65     1199.783     0.951     0.926      3.794     83.74603  20.3522        687
 3.73   0.0244   1410.1467    348.3118  48.27      3729.51     1.824     1.430      4.473     83.73655  19.1209        688
 4.79   0.0374    977.1621    451.1198 -80.29      2431.85     1.395     1.281      4.608       83.765  19.5852        689
 4.03   0.0329   1405.3202    328.2343 -52.99     2767.645     1.263     1.192      2.928       83.765  19.4447        690
 3.50   0.0002   1392.3256    112.7033 -57.14     410391.7     2.043     1.990      3.794     83.73655  14.0170        691
 4.16   0.0168    979.9540    796.3262 -60.74     5409.523     1.897     1.679      5.473     83.74603  18.7171        692
 7.69   0.1934   1401.2513     61.0088  -0.45     470.8336     0.683     0.434      3.189     83.83134  21.3678        693
 3.50   0.0024   1387.8695   1427.1104 -78.66     38434.05     1.676     1.662      3.520     83.71758  16.5882        694
 5.43   0.1253   1305.7584    572.4661 -28.68     726.0111     1.038     0.790      3.719     83.78396  20.8976        695
 5.53   0.2035   1028.8491    945.8722 -42.73     446.8822     0.837     0.654      3.574     83.72706  21.4245        696
 4.18   0.0195   1399.7241   1029.9249  30.94     4672.821     1.676     1.466      4.368     83.73655  18.8761        697
 7.24   0.0823   1388.1443   1100.9866  85.64     1106.545     0.920     0.753      5.155     83.82187  20.4401        698
 5.40   0.0850   1396.0151   1101.5850   5.73     1070.793     0.989     0.763      3.737     83.78396  20.4757        699
 7.62   0.2634   1386.4980    675.9568   0.02     345.0706     0.789     0.500      3.005     83.70808  21.7052        700
 8.03   0.1019   1402.0109   1343.7205 -84.02     892.8725     0.758     0.680      4.547     83.80292  20.6730        701
 4.65   0.0025   1358.5231   1133.8226  74.98     35784.47     9.508     6.594     28.321     83.78396  16.6658        702
 3.50   0.0069   1389.4053    711.6841  81.49     13232.74     1.589     1.516      3.496     83.77448  17.7459        703
 6.99   0.0451    990.2462      7.4625 -28.26     2003.444     1.469     1.124      7.480     83.27047  19.7956        704
 3.50   0.0000   1365.6389   1158.5627 -61.99      2980381     2.775     2.613      4.653     83.81239  11.8643        705
 3.50   0.0101   1391.3113   1037.2988 -67.49     9003.736     1.494     1.448      3.511     83.69859  18.1639        706
 6.34   0.0856   1027.8447    179.1574 -46.03     1062.971     1.273     0.867      4.649     83.81239  20.4837        707
 8.07   0.1101   1384.5070   1383.5040  -0.31     825.5414     1.068     0.500      5.577     83.69859  20.7582        708
 4.49   0.0712   1378.1963    317.5049 -18.68     1277.409     1.323     1.092      3.332     83.75552  20.2842        709
 4.99   0.1546   1027.0353    462.2316  -5.81     588.6337     0.873     0.743      3.111     83.79344  21.1254        710
 4.34   0.1506   1027.3413    350.5627 -39.74     604.4318     1.013     0.865      2.995     83.79344  21.0966        711
 4.72   0.0271   1351.2303    150.2305  80.68     3357.703     2.162     1.660      6.740     83.80292  19.2349        712
 3.62   0.1163   1345.8954    192.6021  62.75     782.5892     1.027     0.942      2.769     83.77448  20.8162        713
 3.50   0.0020   1371.5310   1017.4489 -37.34     45187.32     1.902     1.751      3.855     83.75552  16.4125        714
 4.39   0.0923   1026.6232    605.9142  -0.73     985.3245     1.056     0.926      3.062     83.77448  20.5661        715
 4.61   0.1016   1367.3762    147.6849  44.63     895.4537     1.049     0.928      3.368     83.77448  20.6699        716
 6.03   0.2340   1368.1707   1068.1990  45.38     388.7445     0.745     0.564      3.191     83.74603  21.5758        717
 5.57   0.0747   1369.6470   1213.9382 -16.30     1217.473     1.108     0.943      4.662       83.765  20.3364        718
 5.44   0.2000   1311.2119    269.9725   1.04     455.0972     0.698     0.409      1.889     83.80292  21.4047        719
 3.94   0.1132   1276.5571    341.7841  80.92     803.6832     0.954     0.928      2.560     83.80292  20.7873        720
 3.50   0.0053   1264.4229    806.2896 -18.43     17022.54     1.560     1.538      3.400     83.77448  17.4724        721
 7.00   0.6217   1307.3242    793.3080 -45.86     146.2533     0.562     0.341      2.641     83.72706  22.6372        722
 3.50   0.0201   1094.6395   1525.1777 -30.46     4536.799     1.334     1.266      3.024     83.80292  18.9081        723
 6.63   0.0759   1361.7042   1110.3534  56.98     1197.481     1.183     0.776      5.764     83.69859  20.3543        724
 4.76   0.1540   1351.8541    473.8246 -48.19     591.1178     0.815     0.672      2.611     83.83134  21.1208        725
 5.27   0.2838   1369.7343    705.0079   5.00     320.8355     0.719     0.666      2.768     83.84082  21.7843        726
 4.34   0.2518   1359.8328   1242.1254  42.19     361.2906     0.788     0.679      2.219       83.765  21.6554        727
 7.35   0.6068   1351.7126    965.6663 -42.38     149.8584     0.557     0.342      2.811     83.73655  22.6108        728
 5.66   0.0155   1329.6985   1138.2083 -78.58     5853.502     2.447     1.630      9.319     83.74603  18.6315        729
 8.03   0.1977   1098.2954    861.6458  42.19     459.8518     0.569     0.337      2.974     83.70808  21.3935        730
 8.52   0.1018   1361.5084    525.3306 -89.77     893.6086     0.931     0.470      4.199     83.73655  20.6721        731
 5.18   0.1158   1361.7424    389.2371 -25.90      785.974     1.318     0.771      3.811     83.79344  20.8115        732
 5.33   0.1517   1302.4600     40.9724  88.35     599.8285     0.798     0.697      2.754     83.81239  21.1049        733
 3.84   0.0585   1345.2644    603.6066 -53.36     1556.037     1.351     1.168      3.475     83.83134  20.0699        734
 4.45   0.0523   1298.1709     52.2045  42.58     1738.237     1.145     1.089      3.470     83.78396  19.9497        735
 6.46   0.0740   1305.3463    842.9009  21.88     1228.893     1.169     1.048      4.949     83.68911  20.3262        736
 3.50   0.0060   1306.4845    668.0395 -50.87     15122.45     1.914     1.586      3.806     83.77448  17.6009        737
 3.50   0.0050   1328.8699    654.2535  11.69     18328.15     1.733     1.657      3.935     83.74603  17.3922        738
 3.51   0.0201   1331.7373    105.7020 -22.36     4524.364     1.408     1.294      3.254     83.74603  18.9111        739
 3.92   0.0453   1387.8553    805.0548  64.31     2007.898     1.193     1.139      2.885     83.77448  19.7931        740
 3.50   0.0006   1318.9818    658.3548 -10.07       155066     1.880     1.869      3.746     83.80292  15.0737        741
 8.15   0.2226   1316.2993   1355.6572  42.83     408.2668     0.566     0.339      2.892     83.69859  21.5226        742
 3.50   0.0000   1220.4615    993.4240 -37.25      2882826     7.178     6.670     11.391     83.81239  11.9005        743
 6.41   0.1327   1314.3456   1132.9926   3.01     686.4034     0.742     0.668      3.874     83.85976  20.9586        744
 3.58   0.0130   1258.4662    430.8267  -5.62     7015.851     2.268     2.110      5.898     83.79344  18.4348        745
 7.00   0.1033   1338.1383   1478.8722  41.74     880.6351     0.831     0.669      4.735     83.74603  20.6880        746
 7.08   0.0845   1301.7408    937.3929  86.72     1077.816     1.329     0.611      5.463     83.84082  20.4686        747
 6.17   0.0779   1324.0872    631.8570   9.21     1167.328     1.745     0.712      5.493     83.73655  20.3820        748
 3.71   0.0224   1303.8031    891.3152 -58.81     4067.932     1.341     1.271      3.155     83.77448  19.0266        749
 4.11   0.0066   1306.6106   1034.6216 -39.20     13684.83     2.756     2.091      6.883       83.765  17.7094        750
 3.50   0.0371   1329.3933    385.2852  -3.69     2452.113     1.296     1.253      3.121     83.77448  19.5761        751
 3.64   0.0284   1318.3696    262.4020 -29.61     3204.201     1.276     1.231      3.076       83.765  19.2857        752
 6.94   0.3572   1322.6433    957.6936 -47.21     254.4772     0.575     0.334      2.178     83.70808  22.0359        753
 3.50   0.0001   1297.3101    723.3259 -19.97     965857.4     2.659     2.132      3.958     83.72706  13.0877        754
 7.95   0.1012   1100.0000    111.0088   0.00     898.8347     0.859     0.289      3.280     83.74603  20.6658        755
 7.44   0.0650   1311.9938    998.0768 -28.43     1399.075     1.170     1.052      7.018     83.79344  20.1854        756
 3.93   0.0259   1128.1840    545.7701 -30.27     3517.256     1.357     1.284      3.388     83.81239  19.1845        757
 3.50   0.0025   1290.3876    760.6219 -25.70     36074.89     2.257     1.708      4.603     83.77448  16.6570        758
 3.50   0.0042   1277.2014   1329.9415 -87.78     21925.17     1.635     1.592      3.541     83.84082  17.1976        759
 5.36   0.0486   1384.7158   1272.3895  46.12      1872.46     1.497     1.334      5.764     83.77448  19.8690        760
 6.67   0.1065   1123.5750    756.7877 -48.27     853.9409     1.098     0.721      5.373     83.77448  20.7214        761
 6.04   0.2951   1124.4918    274.9145  -0.16     308.0394     0.776     0.500      2.984     83.69859  21.8285        762
 6.67   0.0947   1175.9192     17.0545 -23.45      960.534     1.282     0.648      4.596     83.72706  20.5937        763
 6.61   0.1356   1299.0090    845.0176  -0.23      670.681     0.629     0.597      3.205     83.75552  20.9837        764
 8.09   0.0717   1128.5016    872.2014  88.21     1268.291     0.976     0.730      5.854     83.74603  20.2920        765
 4.20   0.0626   1290.6204    544.2021 -20.71     1452.691     1.143     1.012      3.401     83.77448  20.1446        766
 6.33   0.1177   1292.7864   1089.9070  60.37     772.5882     0.923     0.748      4.295       83.765  20.8301        767
 7.27   0.1266   1104.0562    625.2693  83.01     718.4312     0.721     0.682      4.326     83.74603  20.9090        768
 3.50   0.0000   1150.6973    692.2532 -38.99      3053552     2.887     2.676      4.465     83.70808  11.8380        769
 3.50   0.0195   1291.5846    411.0669  -7.91     4678.262     1.363     1.260      3.127     83.82187  18.8748        770
 8.12   0.1164   1107.3711    969.7735 -17.41     781.7085     0.756     0.447      4.158     83.80292  20.8174        771
 4.77   0.1129   1282.3370   1567.6477 -45.17     805.8492     0.972     0.847      2.857       83.765  20.7844        772
 4.40   0.0102   1202.3214   1074.0956  33.00     8888.481     2.223     1.786      6.167     83.70808  18.1779        773
 8.52   0.1678   1152.4865    574.5125 -44.93     541.7741     0.506     0.494      3.034     83.71758  21.2155        774
 7.49   0.3596   1196.4852   1199.4744  48.16     252.8006     0.502     0.498      2.895     83.71758  22.0431        775
 5.26   0.2299   1129.1439   1143.1812 -48.55     395.7782     0.817     0.666      2.693     83.79344  21.5564        776
 7.01   0.0304   1140.4651    659.7985 -52.32     2994.175     1.893     1.522     10.803     83.84082  19.3593        777
 4.18   0.0515   1272.8336    696.5293 -23.77     1767.629     1.376     1.208      4.039     83.78396  19.9315        778
 4.58   0.0441   1261.2365    853.7141 -51.40     2061.294     1.240     1.125      3.706     83.77448  19.7647        779
 4.33   0.2196   1172.2396    206.5415  -0.52     414.4069     0.948     0.716      2.576     83.79344  21.5064        780
 7.67   0.1435   1144.4635   1337.2426  -9.82     634.1841     1.001     0.475      4.418     83.77448  21.0445        781
 7.53   0.0377   1227.8853    913.5693 -17.44     2414.806     1.499     1.332      8.993     83.78396  19.5928        782
 4.39   0.1443   1105.8502   1265.8051 -41.21     630.8289     0.868     0.840      2.766     83.84082  21.0502        783
 5.42   0.0868   1243.1521    612.2711   8.43     1048.461     1.060     0.898      4.072     83.75552  20.4986        784
 4.15   0.0418   1227.8395   1152.2141 -22.11     2178.167     1.188     1.147      3.331     83.81239  19.7048        785
 3.50   0.0016   1271.8032    608.2762 -58.06     57574.23     4.613     2.623      9.081     83.79344  16.1494        786
 6.11   0.1915   1243.4989   1537.5067 -45.16     474.7047     0.504     0.496      1.938     83.70808  21.3589        787
 3.50   0.0012   1213.5747    511.3549 -25.18     75776.38     1.795     1.778      3.648     83.82187  15.8512        788
 3.50   0.0406   1236.6469     46.4764  -7.04     2242.792     1.257     1.207      3.010     83.74603  19.6730        789
 3.54   0.0188   1241.5844    671.1392   6.78     4831.246     1.349     1.311      3.079     83.78396  18.8399        790
 4.91   0.1293   1128.6785    503.2145 -72.86     704.1687     0.970     0.848      2.820     83.81239  20.9308        791
 6.05   0.0515   1237.0966    855.9076 -56.54     1764.762     1.347     1.137      6.574     83.69859  19.9333        792
 3.50   0.0018   1209.7596   1277.4928  80.92     50034.19     6.133     3.697     12.121     83.69859  16.3018        793
 3.89   0.0299   1179.9685    547.8348  27.07     3042.893     1.325     1.278      3.408     83.80292  19.3418        794
 3.52   0.0104   1236.1481   1552.2064 -62.25     8730.688     1.513     1.419      3.518      83.8503  18.1974        795
 5.47   0.0184   1228.9092    597.3938  -8.65     4937.441     1.958     1.837      8.146     83.74603  18.8162        796
 7.87   0.2890   1223.3279    403.3292 -44.94     314.5034     0.573     0.336      2.479     83.70808  21.8059        797
 7.66   0.1453   1174.8308    251.6800 -22.04     626.1241     0.744     0.641      4.194     83.77448  21.0583        798
 3.65   0.1060   1018.5430   1153.2629 -11.43     858.3785     1.024     0.928      2.764       83.765  20.7158        799
 6.41   0.1094   1252.5984   1087.1168  72.04     831.8926     0.947     0.671      4.291     83.78396  20.7498        800
 4.88   0.1181   1184.2291    312.3769  -4.81      770.482     0.955     0.906      2.960     83.79344  20.8331        801
 4.38   0.0705   1203.2086   1215.9971 -46.57     1290.262     1.081     1.040      3.447     83.75552  20.2733        802
 3.50   0.1031   1261.4006    214.4516 -30.80     882.9545     1.011     0.985      2.629     83.84082  20.6852        803
 5.10   0.0627   1220.3372   1429.9238 -84.30     1450.946     1.241     1.166      4.452     83.73655  20.1459        804
 4.24   0.0117   1211.8528   1427.9130  72.05     7743.618     2.884     2.287      7.671     83.72706  18.3276        805
 7.06   0.3660   1086.4921   1010.4984 -44.40     248.3676     0.501     0.499      2.720     83.70808  22.0623        806
 4.41   0.0097   1194.0449    122.4260 -77.15     9383.089     2.421     1.984      6.976     83.82187  18.1191        807
 3.89   0.0029   1171.4908    756.1340 -51.46     30963.08     3.866     3.757      9.358     83.75552  16.8229        808
 6.93   0.0381   1194.9761   1051.7767  26.54     2390.794     1.358     1.086      7.433     83.80292  19.6036        809
 3.50   0.0065   1233.3156    303.1268  10.70     14053.06     1.539     1.496      3.341     83.72706  17.6806        810
 5.49   0.0724   1209.7424    827.6857  20.32     1257.014     1.355     0.992      4.604     83.75552  20.3016        811
 5.19   0.0748   1209.4709   1414.3469   8.04     1216.661     1.389     0.977      3.579     83.74603  20.3371        812
 3.55   0.0103   1206.7057    837.2629 -23.02     8812.741     1.473     1.408      3.385     83.74603  18.1872        813
 3.50   0.0159   1200.0442   1440.7319  64.16     5706.236     1.865     1.674      4.359       83.765  18.6591        814
 3.50   0.0109   1200.7561    337.4187 -18.04     8328.808     1.454     1.439      3.343     83.79344  18.2485        815
 5.57   0.2890   1197.0143    410.9902   3.15     314.7223     0.615     0.613      2.430     83.74603  21.8052        816
 7.37   0.1449   1186.0320   1233.0010  45.53     627.6647     0.915     0.530      3.970     83.77448  21.0557        817
 5.96   0.0330   1181.9125    672.2666 -38.80     2758.575     1.337     1.252      6.696     83.74603  19.4483        818
 3.50   0.0585   1180.7084    174.5835  42.19       1554.2     1.217     1.137      2.905     83.78396  20.0712        819
 5.48   0.1736   1222.1429    828.8300  43.66     524.1721     0.817     0.666      3.054     83.81239  21.2513        820
 8.16   0.0566   1187.8943    935.4072 -48.99     1606.125     0.997     0.748      5.983       83.765  20.0356        821
 4.40   0.2908   1195.9845   1332.0293 -26.05     312.9507     0.791     0.777      2.633     83.81239  21.8113        822
 6.16   0.3354   1208.4907   1453.4929 -44.90     271.0768     0.505     0.495      2.000     83.70808  21.9673        823
 7.42   0.2548   1185.2233    389.9972   0.12     357.0672     0.692     0.416      3.046     83.78396  21.6681        824
 5.91   0.1128   1179.3308   1402.4528 -22.60     806.4456     0.953     0.825      3.836     83.74603  20.7836        825
 7.60   0.0881   1178.1711   1306.1359  44.87     1032.929     0.759     0.567      4.554     83.78396  20.5148        826
 5.29   0.0887   1146.7434    110.7038   6.37     1025.416     1.044     0.920      3.780     83.70808  20.5227        827
 3.69   0.0080   1119.2843    328.1035  59.93     11406.69     2.997     1.855      6.632     83.67962  17.9071        828
 3.50   0.0004   1164.2914   1298.2402 -60.14       257134     1.971     1.917      3.755     83.71758  14.5246        829
 3.70   0.0125   1150.1506     97.7526 -18.30     7302.567     1.468     1.382      3.474     83.81239  18.3913        830
 5.51   0.1017   1157.1002    184.2888 -70.77      893.662     1.252     0.910      3.412     83.67962  20.6721        831
 5.05   0.0662   1155.2443    565.8426 -72.71     1374.069     1.371     1.108      4.152     83.81239  20.2050        832
 8.18   0.1077   1166.4851    637.9879  -0.63     845.1044     0.781     0.500      4.452     83.78396  20.7327        833
 4.59   0.0429   1166.0668   1598.8599  81.41     1693.593     1.399     0.944      3.450     66.94227  19.9780        834
 3.99   0.0184   1152.6777   1351.5503 -11.80     4938.877     1.660     1.613      4.650     83.72706  18.8159        835
 6.36   0.1511   1155.5432    349.9644 -61.96     602.1865     1.000     0.667      3.971     83.80292  21.1007        836
 4.16   0.0264   1160.7136    886.1776  -5.98     3442.364     1.328     1.227      3.485     83.77448  19.2079        837
 7.46   0.0649   1156.7861    969.3268 -20.66     1402.798     0.978     0.847      5.868      83.8503  20.1825        838
 3.50   0.0031   1156.7560    234.6834 -79.93     29797.13     1.671     1.666      3.579     83.75552  16.8646        839
 6.77   0.2463   1154.0000   1123.9731   0.00     369.3555     0.860     0.289      2.201       83.765  21.6314        840
 3.50   0.0018   1218.0081   1193.4810  65.18     49256.37     1.997     1.875      4.045     83.77448  16.3188        841
 7.48   0.2081   1205.5585    721.4760  38.68     437.1734     0.504     0.491      3.027       83.765  21.4484        842
 6.43   0.2274   1145.6858    793.0436  -9.70     400.0293     0.733     0.663      3.561       83.765  21.5448        843
 3.57   0.0275   1129.1498    217.8572  -3.65     3309.843     1.557     1.367      3.712     83.77448  19.2505        844
 4.30   0.1097   1171.6689    231.1080 -63.51     828.6125     1.079     0.977      3.143     83.72706  20.7541        845
 4.68   0.0549   1144.4302    768.3583 -59.72       1659.3     1.570     1.123      4.710     83.82187  20.0002        846
 4.35   0.0839   1176.0365   1597.4617 -85.35     939.9979     1.045     0.936      3.087     72.58913  20.6172        847
 3.50   0.0006   1137.4620    146.3127 -54.99     160242.4     1.912     1.893      3.748     83.73655  15.0381        848
 5.35   0.1041   1078.2360    920.6154 -32.32     874.4342     0.959     0.940      3.875     83.80292  20.6957        849
 4.59   0.0623   1130.0065    357.5856 -42.74     1459.424     1.180     0.984      3.422     83.73655  20.1395        850
 4.86   0.0434   1132.8885    605.9141 -11.29     2094.625     1.313     1.173      4.977     83.72706  19.7472        851
 3.50   0.0011   1128.9320    181.7648 -53.97     83533.94     1.817     1.770      3.686     83.79344  15.7453        852
 6.05   0.1380   1127.2538    836.0876  74.99     659.0089     1.023     0.750      4.389     83.71758  21.0028        853
 5.53   0.0206   1104.5703    677.0995  39.04      4411.02     2.169     1.755      8.330     83.70808  18.9387        854
 6.54   0.1373   1125.1917    164.8132 -46.07      662.301     0.742     0.565      3.811     83.74603  20.9974        855
 7.26   0.0715   1120.9564    739.5446   0.88     1272.947     1.058     0.785      5.653     83.77448  20.2880        856
 5.82   0.1243   1119.8595    638.3765  23.52     732.2584     1.121     0.835      5.539     83.82187  20.8883        857
 5.18   0.0852   1115.5903   1168.8553 -34.12     1068.395     1.356     0.982      4.518     83.83134  20.4782        858
 3.50   0.0026   1106.4481    426.3384  -9.29      35404.6     1.716     1.686      3.651     83.75552  16.6773        859
 6.93   0.0759   1116.5751    663.2375 -57.89     1198.899     1.025     0.796      5.880     83.79344  20.3530        860
 6.38   0.0982   1107.9810   1122.0045 -62.43     926.6385     0.791     0.782      4.170       83.765  20.6327        861
 5.17   0.0272   1113.1106    672.6693 -71.48     3347.996     1.311     1.310      5.739     83.71758  19.2380        862
 8.70   0.1544   1114.6976    505.6875 -44.41     588.5306     0.554     0.344      3.327     83.68911  21.1256        863
 5.24   0.0126   1110.1713    477.9135  27.23     7245.635     3.267     2.221     10.833     83.77448  18.3998        864
 3.50   0.0017   1103.5300    750.2573 -87.83     54715.61     1.778     1.761      3.697     83.74603  16.2047        865
 3.77   0.0560   1093.7592   1134.8015  40.97     1624.499     1.145     1.081      3.037     83.80292  20.0232        866
 6.69   0.1864   1083.5940    844.8043  19.73     488.0179     0.765     0.444      2.944     83.75552  21.3289        867
 5.81   0.1206   1076.9998    466.9958 -37.55     754.5012     0.792     0.772      3.791     83.78396  20.8559        868
 3.50   0.0006   1093.8246    776.4846  83.71     154362.1     1.916     1.881      3.748     83.77448  15.0786        869
 3.68   0.0333   1078.3486    328.4358 -38.53      2733.93     1.267     1.239      3.239     83.79344  19.4580        870
 4.89   0.0218   1089.8680    466.5598 -61.42     4172.544     2.769     1.373      7.684     83.78396  18.9990        871
 6.19   0.0344   1091.9058    427.6240  27.34     2643.006     2.152     1.530      8.857     83.75552  19.4948        872
 5.08   0.0603   1087.3275    395.1394  67.72     1509.185     1.334     1.094      4.075     83.74603  20.1031        873
 4.47   0.0159   1059.0112    725.3658  25.60     5718.622     2.079     1.759      6.237     83.81239  18.6568        874
 3.81   0.0515   1085.5021   1451.3997  65.38     1766.535     1.515     1.213      3.816     83.74603  19.9322        875
 3.50   0.0056   1088.2401    640.8350  86.91      16127.3     1.566     1.534      3.501     83.81239  17.5311        876
 3.50   0.0000   1022.7267     48.6201 -35.71      2239757     2.597     2.408      4.124     83.82187  12.1745        877
 3.50   0.0005   1079.0282    510.4786 -32.38     169935.5     1.914     1.898      3.734       83.765  14.9743        878
 4.25   0.0318   1062.2235      5.4637 -29.00     2696.987     1.246     1.180      3.314     78.98222  19.4728        879
 3.50   0.0018   1080.8505   1146.6935  77.88     49471.32     1.745     1.731      3.631     83.71758  16.3141        880
 4.12   0.0089   1071.2167   1217.5026 -70.66     10270.26     2.520     2.104      6.993       83.765  18.0210        881
 4.82   0.0327   1082.6919     41.1963  -8.16     2777.294     1.616     1.304      4.650     83.74603  19.4409        882
 4.37   0.0521   1065.7548    567.4888 -62.16     1744.555     1.384     1.135      3.901     83.73655  19.9458        883
 5.51   0.0764   1079.3701     51.4391 -43.55     1191.008     1.041     0.920      4.121     83.80292  20.3602        884
 4.63   0.1167   1016.3798    199.5536  42.36     780.0863     1.080     0.949      2.959     83.80292  20.8196        885
 4.14   0.0256   1072.2291      5.1956 -71.72     3318.646     1.268     1.239      3.494     78.19389  19.2476        886
 3.50   0.0011   1008.8694    812.1041  84.86     85351.34     1.824     1.805      3.679     83.74603  15.7220        887
 5.26   0.0696   1073.5564    350.7970  61.84     1307.506     1.464     1.131      5.614     83.83134  20.2589        888
 4.81   0.0942   1062.8992    290.3218 -19.83     965.4008     1.087     0.971      3.612     83.70808  20.5882        889
 4.43   0.0164   1064.2568   1561.6133 -67.53      5549.37     2.826     1.830      7.562     83.81239  18.6894        890
 3.50   0.0435   1064.9015   1595.6791  -0.52     1962.379     1.193     1.117      2.909     78.52838  19.8180        891
 3.50   0.0004   1039.2612    631.3998 -52.15     218335.4     1.943     1.906      3.746     83.84082  14.7022        892
 5.96   0.1480   1055.2920    663.0732   5.50     614.6083     0.739     0.675      2.962     83.74603  21.0785        893
 5.25   0.1526   1059.5073    689.4709   0.23     595.9349     1.035     0.500      2.726     83.73655  21.1120        894
 4.91   0.0416   1066.9222   1472.6885  13.82     2184.468     2.290     1.464      6.996     83.70808  19.7016        895
 6.46   0.0999   1046.9856   1157.0267  37.73     911.0012     0.802     0.775      3.828     83.78396  20.6512        896
 6.80   0.2506   1047.3096    206.9439  -7.42     362.9024     0.748     0.663      3.573     83.73655  21.6505        897
 3.96   0.0922   1051.4053    236.0589  32.58     987.8561     1.280     1.083      3.725     83.83134  20.5633        898
 3.50   0.0020   1037.6960    523.7816  82.78     44534.19     1.756     1.726      3.665       83.765  16.4283        899
 4.81   0.1022   1041.5990   1094.1293  31.86     891.0402     1.300     0.830      3.779     83.82187  20.6753        900
 5.15   0.1086   1051.6841    399.0921 -82.94     837.4151     1.140     0.849      3.648     83.71758  20.7426        901
 7.71   0.3167   1052.5165   1383.5254  56.93     287.0727     0.500     0.499      3.000     83.72706  21.9050        902
 6.71   0.2593   1032.5081    491.9370  -0.07      350.777     0.789     0.500      2.981     83.75552  21.6874        903
 5.45   0.0556   1039.6661    465.6006  32.05     1636.813     1.347     1.141      5.405     83.83134  20.0150        904
 4.73   0.0255   1036.8652    120.3497 -37.54     3569.875     2.572     1.361      6.164       83.765  19.1684        905
 6.90   0.1225   1025.0353      5.9489 -44.25      712.055     0.891     0.532      4.284     80.28879  20.9187        906
 5.31   0.1306   1032.7021    100.3017  39.23     695.8168     0.931     0.759      3.354     83.69859  20.9438        907
 5.23   0.1136   1036.4390    240.4637  -4.44     801.0322     0.907     0.880      3.181     83.78396  20.7909        908
 3.62   0.0730   1013.5132    451.4057  19.72     1246.725     1.293     1.062      3.127     83.77448  20.3106        909
 3.73   0.0098   1029.2534    300.8980  65.90     9298.171     2.833     1.955      6.121     83.69859  18.1290        910
 4.77   0.1077    992.2214    498.2236  13.88     845.1459     0.950     0.845      3.009     83.80292  20.7327        911
 3.50   0.0009   1024.8685   1378.5450 -82.84     99451.14     1.908     1.781      3.660     83.74603  15.5560        912
 6.67   0.0958   1024.2909    126.9758   2.36     949.6894     0.735     0.678      4.094       83.765  20.6060        913
 6.46   0.2330   1031.4546   1166.4862  30.61     390.3369     0.501     0.497      2.204     83.74603  21.5714        914
 3.50   0.0069   1010.2822    343.0762 -25.98     13128.19     1.542     1.500      3.443     83.74603  17.7545        915
 5.39   0.1972   1028.5204   1033.8624  49.53     461.1117     0.858     0.665      2.843     83.72706  21.3905        916
 5.72   0.0513   1010.0002    266.0419  37.06     1774.386     1.151     1.135      5.162     83.80292  19.9274        917
 7.25   0.1969   1008.5160    188.9674   0.83     462.1906     0.782     0.500      3.757     83.78396  21.3879        918
 6.09   0.1787   1025.4962   1265.4888 -34.41     508.7147     0.938     0.561      2.865     83.68911  21.2838        919
 4.83   0.1389    991.4347    344.4879 -26.49     655.0402     0.908     0.880      3.145     83.77448  21.0093        920
 3.50   0.1942   1003.3541   1236.5841  39.67     468.6942     1.130     0.769      2.699     83.79344  21.3728        921
 4.80   0.0507   1020.2845   1267.2625  45.75     1794.316     2.403     0.986      5.438     83.73655  19.9153        922
 3.50   0.0064   1000.7197    541.0186  31.04      14329.5     1.581     1.571      3.599     83.80292  17.6594        923
 3.50   0.0155   1000.5585   1554.0790 -38.51      5872.37     1.361     1.359      3.186       83.765  18.6280        924
 3.68   0.0202    998.8989   1272.4159 -27.00     4495.237     1.391     1.252      3.132     83.75552  18.9181        925
 5.61   0.0964   1042.1692    808.1451 -29.58     944.4142     0.877     0.838      4.121     83.81239  20.6121        926
 7.01   0.2666    998.5260   1439.5573 -49.47     341.2292     0.506     0.490      2.398     83.75552  21.7174        927
