#   1 KRON_RADIUS            Kron apertures in units of A or B                         
#   2 MAGERR_APER            RMS error vector for fixed aperture mag.                   [mag]
#   3 Y_IMAGE                Object position along y                                    [pixel]
#   4 X_IMAGE                Object position along x                                    [pixel]
#   5 THETA_IMAGE            Position angle (CCW/x)                                     [deg]
#   6 FLUX_APER              Flux vector within fixed circular aperture(s)              [count]
#   7 A_IMAGE                Profile RMS along major axis                               [pixel]
#   8 B_IMAGE                Profile RMS along minor axis                               [pixel]
#   9 FLUX_RADIUS            Fraction-of-light radii                                    [pixel]
#  10 FLUXERR_APER           RMS error vector for aperture flux(es)                     [count]
#  11 MAG_APER               Fixed aperture magnitude vector                            [mag]
#  12 NUMBER                 Running object number                                     
 3.50   0.0000    181.0296   1105.8228 -42.25      2525723     6.881     6.329     10.458     83.78378  12.0440          1
 3.54   0.0006     52.5032     61.8569   6.63     152051.2     7.099     6.376     16.104     83.70791  15.0950          2
 3.50   0.0004     58.9559   1076.9435  80.37     241637.6     2.158     2.036      3.975      83.7743  14.5921          3
 3.50   0.0036     15.7470    983.4686 -87.92     25028.88     4.573     2.016      8.400     83.74586  17.0539          4
 3.73   0.0206     23.8459    365.4448  11.92     4418.389     1.434     1.383      3.673     83.81222  18.9368          5
 3.50   0.0450     16.2665    382.9738 -57.39     2024.071     1.490     1.235      3.271     83.79326  19.7844          6
 3.50   0.0044     17.0171     89.4665 -23.70     20542.43     1.716     1.678      3.654     83.80274  17.2684          7
 3.50   0.0017     13.8082   1444.2325 -50.19     53120.95     1.769     1.738      3.600     83.79326  16.2368          8
 4.05   0.0862     13.3555    839.4698 -68.25     1054.656     1.795     1.158      4.206     83.75534  20.4922          9
 4.15   0.1620     14.6512   1561.4030 -38.91     562.1163     1.002     0.868      3.004     83.84064  21.1754         10
 3.50   0.0989      9.1762   1182.2531  63.97     920.9855     1.114     1.082      2.932     83.83117  20.6394         11
 3.64   0.1256      5.9200   1467.9447   2.76     693.5865     1.195     1.150      3.557     80.19953  20.9472         12
 4.51   0.0366      3.6409    143.2160  56.00     2165.891     1.759     1.589      5.076     73.01447  19.7109         13
 4.61   0.0900      3.7293    183.8148   1.75     884.9203     1.337     1.145      4.138     73.35092  20.6827         14
 6.48   0.2062      2.6827    843.3784  20.12     364.6396     0.943     0.580      4.344     69.22861  21.6453         15
 7.85   0.3057      3.3090    161.3352 -43.71      254.807     0.567     0.338      3.404     71.73043  22.0345         16
 6.10   0.1412      1.9306    302.4750   3.63     507.7365     1.017     0.770      4.310     65.99814  21.2859         17
 3.50   0.0638     23.0219    381.4543  30.95     1427.317     1.368     1.245      3.680     83.82169  20.1637         18
 4.55   0.1578     17.2580   1213.4838   6.75     576.3663     0.955     0.928      2.271     83.73637  21.1483         19
 5.73   0.2664     15.4904    192.9885  -3.25     341.4741     0.790     0.499      2.955     83.76482  21.7166         20
 4.13   0.0347     33.0241   1108.5377  63.75     2625.769     2.110     1.333      4.605     83.81222  19.5019         21
 5.12   0.1274     22.8372    696.7354  15.02     714.4084     0.929     0.844      3.205     83.79326  20.9151         22
 4.71   0.3134     20.9592    212.0401 -46.19     290.4429     0.811     0.765      3.107     83.81222  21.8923         23
 5.50   0.1281     24.3048   1451.6566 -46.65     709.6845     1.023     0.860      4.231      83.7174  20.9223         24
 7.45   1.9707     21.3406    883.3214 -45.85     46.15514     0.575     0.334      2.191     83.75534  23.8894         25
 4.98   0.0515     32.4049    324.9523 -19.39      1767.64     1.570     1.318      4.336     83.84064  19.9315         26
 6.99   0.2792     24.8344    529.8267  45.19     325.9484     0.760     0.567      3.351     83.79326  21.7671         27
 6.78   0.1467     25.9974    701.2047  -0.88     620.1271     0.932     0.740      4.721     83.75534  21.0688         28
 6.95   0.5453     23.6851    201.6656 -44.07     166.7744     0.570     0.337      2.331     83.73637  22.4947         29
 6.46   0.0981     33.6780     14.7194  82.00     926.8443     1.082     0.904      5.881     83.73637  20.6325         30
 4.23   0.0537     37.9955   1169.1996  16.63     1695.556     1.355     1.226      3.802     83.76482  19.9767         31
 4.78   0.0548     43.3518    438.6536 -54.40     1661.892     1.744     1.376      4.861     83.79326  19.9985         32
 6.54   0.1770     33.5299   1066.4965  70.90     513.9138     0.976     0.407      2.980     83.74586  21.2728         33
 3.50   0.0004     79.0630    535.8602 -62.01     231896.7     2.009     1.977      3.773     83.75534  14.6368         34
 3.67   0.0733     37.0430   1519.9758 -48.34     1241.816     1.177     1.064      2.620     83.82169  20.3149         35
 7.91   1.9802     29.6498   1486.2804  48.74     45.92966     0.560     0.340      2.728     83.74586  23.8948         36
 3.95   0.0641     41.5129    913.8262 -66.99      1419.58     1.220     1.086      2.895     83.78378  20.1696         37
 3.50   0.1703     38.4746   1224.7139 -32.27     533.8276     1.302     0.820      2.839      83.7174  21.2315         38
 4.68   0.0774     49.2970    263.4306 -79.50     1174.046     1.648     1.214      4.155     83.72688  20.3758         39
 4.52   0.2115     42.5328    226.6916  37.05     430.0067     1.066     0.788      3.332     83.74586  21.4663         40
 7.32   0.2384     39.4763   1126.5161 -43.94     381.4156     0.504     0.495      2.707     83.72688  21.5965         41
 3.50   1.3849     41.6014   1000.3078  -4.50     65.67751     1.022     0.615      2.053     83.75534  23.5065         42
 4.49   0.2140     46.5404   1429.2076  19.51     425.4164     0.905     0.891      2.449     83.84064  21.4780         43
 5.04   0.1517     46.7716    664.5160 -28.15     599.6498     1.022     0.796      3.283      83.7743  21.1053         44
 6.98   0.1883     45.8466    473.1279  44.45     483.0383     0.808     0.685      3.998     83.75534  21.3400         45
 3.50   0.0986     49.4517   1433.9252   8.93     922.1155     1.249     0.995      2.923     83.72688  20.6380         46
 6.66   0.1071     50.4632    119.8189  88.19     850.1579     0.918     0.737      5.143     83.80274  20.7262         47
 8.29   0.2142     49.4858    879.5351 -64.51     424.4061     0.500     0.498      3.001     83.72688  21.4805         48
 4.00   0.0768     65.0373   1146.2700 -19.42     1185.211     1.455     1.392      4.442     83.79326  20.3655         49
 6.21   0.2593     58.7776    468.9168  54.51      350.908     1.087     0.522      3.241     83.78378  21.6870         50
 7.78   0.4007     54.2825    319.3522 -41.35     226.9804     0.562     0.339      2.262     83.74586  22.1600         51
 4.60   0.3470     57.3253   1240.1503 -31.73     262.0366     0.863     0.589      2.783     83.72688  22.0041         52
 3.50   0.0107     74.1105    126.4833 -36.10     8526.572     1.530     1.474      3.345     83.73637  18.2231         53
 5.41   0.1253     66.8107   1414.1892 -69.13     725.9416     1.198     0.929      4.277     83.74586  20.8977         54
 3.50   0.4430     65.5495   1514.6031 -73.16     205.5285     0.924     0.799      2.536     83.84064  22.2678         55
 3.50   0.0003    120.9312    787.4824 -57.20     344542.4     2.073     2.034      3.847     83.72688  14.2069         56
 7.50   0.0818     68.4357     17.8169  35.71     1112.416     1.151     0.973      6.905     83.81222  20.4343         57
 4.64   0.1614     70.9651   1320.5903 -84.80     563.6802     1.112     0.932      3.480     83.79326  21.1724         58
 3.83   0.0007    234.0933    401.6226 -45.79     139244.6     9.644     8.194     24.256     83.75534  15.1906         59
 3.59   0.0420     81.3172    419.7298 -85.96     2165.916     1.602     1.353      3.777      83.7174  19.7109         60
 6.29   0.2250     73.4404   1255.7075 -58.14     403.9134     0.952     0.539      3.364     83.69842  21.5343         61
 3.90   0.0195     89.6596    375.3848 -14.03     4656.024     2.441     2.077      5.738     83.78378  18.8800         62
 3.50   0.1683     78.7103   1031.9065 -22.65      540.364     1.134     1.001      3.065      83.7174  21.2183         63
 6.49   0.2506     73.9819    732.3007  89.78     362.9609     0.725     0.670      3.155     83.75534  21.6503         64
 3.50   0.0071     95.5663     54.3909  51.62     12867.06     1.658     1.655      3.767     83.79326  17.7763         65
 3.50   0.0001    192.5904    316.2847 -63.44      1474690     2.961     2.390      4.075     83.78378  12.6282         66
 6.31   0.0858     82.9323    930.9177  37.71     1060.468     1.231     1.035      6.234     83.74586  20.4863         67
 5.38   0.0702     87.5712    757.1959  61.74     1296.567     1.374     1.216      5.723     83.78378  20.2680         68
 5.60   0.2158     84.9324   1559.1282  58.80     421.1867     1.169     0.614      3.776     83.70791  21.4888         69
 4.19   0.1370     87.0815   1358.2363 -69.50     663.8923     1.154     1.013      3.894      83.7743  20.9948         70
 6.34   0.0969     86.6410    862.2183 -36.08     938.9728     1.383     1.055      5.704     83.81222  20.6184         71
 5.11   0.0882     90.7756   1043.8887  54.94     1031.353     1.555     1.059      4.848     83.76482  20.5165         72
 3.78   0.0702     90.5975    494.1282  81.08      1297.48     1.228     1.172      3.215     83.82169  20.2672         73
 5.96   0.1547     87.9500    810.6520 -59.04     588.1627     1.152     0.679      3.955     83.80274  21.1263         74
 7.27   0.3578     84.0238    843.5171  58.19      254.311     0.805     0.310      2.558     83.78378  22.0366         75
 6.96   0.1370     85.7783    923.1915 -46.11     663.9716     0.760     0.561      4.239      83.7743  20.9946         76
 3.82   0.0306     97.1525    451.0917 -16.71     2967.107     2.196     1.322      5.008      83.7174  19.3692         77
 5.00   0.0641     94.6540   1074.7657  36.16     1419.119     1.365     1.159      4.639     83.78378  20.1700         78
 8.28   0.3549     86.6779    735.3154  45.35     256.2378     0.565     0.340      3.154     83.72688  22.0284         79
 4.25   0.2037     94.2043    387.5448   0.76     447.1103     0.927     0.726      2.331     83.85011  21.4240         80
 6.56   0.4489     95.8181    559.6128  71.51     202.6636     0.746     0.449      2.831     83.76482  22.2831         81
 7.17   0.3095     93.5128    870.5064 -44.88     293.7112     0.514     0.485      2.903     83.70791  21.8802         82
 8.22   0.2951     93.6777    667.6960 -46.00     308.0051     0.559     0.342      3.116     83.70791  21.8286         83
 5.57   0.1166    101.6471    517.3776  40.57     780.5736     1.095     0.938      4.424     83.80274  20.8190         84
 5.75   0.0716    112.8001    268.6048  65.26     1271.101     1.678     1.406      6.510     83.75534  20.2895         85
 5.72   0.1314    106.8065   1420.9231 -54.99     692.3436     1.092     0.781      3.964     83.79326  20.9492         86
 7.34   0.0921    106.3212   1098.3352  38.03     987.2308     0.987     0.868      5.924     83.72688  20.5640         87
 4.71   0.1620    107.3404    861.3599  41.75     561.6226     0.979     0.859      2.714     83.79326  21.1764         88
 6.30   0.1714    106.1865    180.1313 -42.16     531.0618     0.824     0.664      3.543     83.83117  21.2371         89
 4.32   0.0902    114.3147    414.2264 -71.35     1008.708     1.316     1.033      4.027      83.7743  20.5406         90
 3.50   0.1291    116.6593    152.4440  88.98     704.7336     1.188     0.965      2.628      83.7743  20.9299         91
 4.56   0.0621    116.2464     65.1732  11.72     1466.666     1.762     1.154      4.578     83.82169  20.1342         92
 4.16   0.2087    109.9876   1513.4553   2.39     436.1324     1.010     0.771      2.888     83.82169  21.4510         93
 3.85   0.1151    116.0682    989.4073 -19.19     790.6703     1.228     1.077      3.053     83.83117  20.8050         94
 4.23   0.2563    117.5243    911.9736 -62.07     355.0142     1.044     0.659      2.559      83.7743  21.6744         95
 8.14   0.2062    112.6601   1411.6680 -45.33     441.0651     0.580     0.332      2.342     83.74586  21.4387         96
 5.98   1.9921    114.5148   1578.5339  47.34     45.63939     0.505     0.494      2.747      83.7174  23.9016         97
 3.70   0.0721    125.3379    492.5833   3.06     1261.281     1.713     1.248      4.127      83.7743  20.2980         98
 3.50   0.0005    161.4548   1466.8226 -54.15     195552.3     1.970     1.933      3.775     83.81222  14.8218         99
 7.95   0.3048    118.4862   1400.5142 -45.04     298.2665     0.503     0.497      2.773      83.7174  21.8635        100
 4.11   0.1575    128.2080    884.2949  61.76     577.5711     1.036     0.870      3.347     83.76482  21.1460        101
 6.76   0.4036    120.6424   1436.3108  46.99     225.3403     0.577     0.333      3.464     83.75534  22.1679        102
 4.53   0.0730    130.2060    416.2736  57.94     1246.304     1.102     1.059      3.488     83.82169  20.3109        103
 3.99   0.1890    127.2104   1476.9792  79.81     481.3792     0.886     0.738      2.242     83.76482  21.3438        104
 7.52   0.2753    122.6954    867.3506  42.87     330.1262     0.572     0.336      3.102     83.68893  21.7533        105
 6.84   0.1430    126.1398   1371.8470 -45.71     636.3861     0.761     0.572      4.145      83.7743  21.0407        106
 5.53   0.0643    141.1429    884.2939  52.30     1415.156     2.329     1.036      7.270     83.72688  20.1730        107
 7.98   0.0645    135.9272   1130.5630 -45.79      1409.92     1.045     0.901      6.273     83.78378  20.1770        108
 8.31   0.2170    129.4938    461.4677  78.84     419.0645     0.500     0.499      3.000     83.73637  21.4943        109
 5.93   0.4819    134.4130     97.8696 -63.58      188.936     1.112     0.573      3.257     83.83117  22.3592        110
 4.87   0.2152    138.0558   1599.6447 -89.12      320.052     1.090     0.478      2.676     63.42052  21.7869        111
 5.05   0.0509    145.7942    352.3351 -51.85     1789.983     1.481     1.254      5.312     83.83117  19.9179        112
 7.46   0.2663    134.3024   1274.6630  43.25       341.52     0.565     0.339      2.527     83.74586  21.7165        113
 3.50   0.0021    169.2852    875.6418 -68.51     43942.75     1.823     1.787      3.717     83.76482  16.4428        114
 4.03   0.0816    150.6898   1278.8584  72.69     1114.658     1.240     1.089      3.124     83.73637  20.4321        115
 3.50   0.1349    154.4591     80.7073 -48.65      674.155     1.139     0.952      2.601     83.72688  20.9781        116
 4.10   0.0214    164.2565   1444.3588  51.65     4258.301     1.599     1.386      4.131     83.76482  18.9769        117
 4.97   0.1270    155.3039   1578.5997  44.99     716.0156     1.015     0.894      3.786     83.76482  20.9127        118
 5.33   0.0149    207.7797    348.2331  43.15     6120.707     2.397     1.657      8.565     83.79326  18.5830        119
 4.66   0.0864    164.9023    574.8923  77.87     1051.928     1.442     1.087      3.826     83.70791  20.4950        120
 6.05   0.2617    154.6779    822.9031   8.95     347.4059     0.733     0.673      3.098      83.7174  21.6979        121
 3.50   0.0333    165.7311    102.5888 -27.00     2733.012     1.371     1.226      3.038     83.83117  19.4584        122
 6.37   0.2138    155.9932   1007.4714 -87.59     425.7704     0.790     0.499      2.783     83.82169  21.4771        123
 7.72   0.0487    165.8160   1054.6110 -30.57     1867.486     1.402     1.251      8.410     83.76482  19.8719        124
 5.29   0.2106    159.0999    491.2162   9.72     431.9791     1.163     0.720      3.842     83.76482  21.4613        125
 4.82   0.0500    168.4566   1367.4496 -10.39     1819.546     1.311     1.213      4.410      83.7743  19.9001        126
 4.37   0.1582    164.4116   1196.3029  10.55     575.0574     1.049     0.910      2.773     83.74586  21.1507        127
 4.70   0.0775    167.8858    649.6248   1.54     1173.759     1.369     1.140      4.272      83.7743  20.3761        128
 4.30   0.0450    179.1838    573.4161  29.87      2021.23     1.836     1.480      5.177     83.78378  19.7860        129
 6.37   0.8256    168.7838    168.6011  71.45     110.1762     0.755     0.450      2.266     83.75534  22.9448        130
 5.92   0.0900    174.9443   1199.0182 -74.34     1010.568     1.198     1.159      4.805     83.79326  20.5386        131
 6.47   0.2671    172.5069     30.0436  89.14     340.3711     0.830     0.681      3.576     83.70791  21.7201        132
 7.22   0.1825    172.9824   1017.2438  89.15     498.6702     0.688     0.429      3.222     83.80274  21.3055        133
 5.22   0.0350    185.8885   1353.4348 -86.38      2597.11     1.682     1.552      7.048     83.76482  19.5138        134
 3.89   0.0182    191.7777   1349.0513 -14.74     4994.261     1.449     1.429      3.512     83.82169  18.8038        135
 7.01   0.1536    182.4289     58.2628 -47.61      592.249     1.098     0.734      4.352     83.78378  21.1187        136
 3.53   0.0048    209.8705    826.0511  -8.35     18986.86     5.112     2.351     10.210     83.74586  17.3539        137
 6.93   0.0562    189.4461   1026.0288 -10.76     1618.682     1.459     1.347      8.585     83.82169  20.0271        138
 3.77   0.0055    229.0276    560.6634 -21.29     16580.52     4.108     3.773     10.309     83.79326  17.5010        139
 6.24   0.1467    186.3875    834.7411 -21.62     620.3092     1.142     0.860      4.409     83.80274  21.0685        140
 7.52   0.3541    183.4922    493.5123  45.64     256.7205     0.502     0.498      3.012     83.70791  22.0263        141
 5.68   0.0504    194.1933    266.3272  -1.40     1804.611     1.870     1.234      6.855     83.82169  19.9090        142
 3.50   0.0100    205.7529    547.4427  63.58      9146.15     1.507     1.494      3.345     83.80274  18.1469        143
 3.50   0.0002    264.9552     65.7536 -50.95     441373.8     2.195     2.108      3.871     83.82169  13.9380        144
 5.83   0.0991    194.8752    447.8389 -56.33      918.113     1.100     0.979      4.966      83.7743  20.6428        145
 3.50   0.0002    258.9338    995.8009 -40.44     597534.6     2.230     2.119      3.900     83.83117  13.6091        146
 7.96   0.0669    193.7061   1158.2716 -23.86     1358.348     1.082     0.880      6.489     83.73637  20.2175        147
 3.50   0.0099    211.4034   1304.6565 -42.51     9244.107     1.532     1.512      3.485     83.85011  18.1353        148
 3.81   0.0336    209.9437    683.1042 -79.22     2709.106     1.702     1.387      4.131      83.7174  19.4679        149
 4.43   0.0429    202.4641    249.1790 -50.77     2120.651     1.296     1.190      4.016     83.81222  19.7338        150
 4.09   0.1413    204.8055    182.1850 -42.90     643.8451     1.107     0.937      3.317     83.75534  21.0280        151
 6.48   0.1100    204.5180    935.3230  -9.34     826.6304     1.115     0.878      5.486     83.74586  20.7567        152
 5.85   0.0194    221.6086    343.9922  22.25     4690.378     2.256     2.120     10.727     83.75534  18.8720        153
 3.50   0.1138    208.2003   1224.0547   3.02     800.3355     1.113     0.992      2.841     83.84064  20.7918        154
 6.35  99.0000    202.4843     89.5112 -44.61     -135.824     0.504     0.495      2.122     83.72688  99.0000        155
 5.43   0.2344    205.1465    940.4792   2.38     388.0057     0.959     0.726      2.768     83.73637  21.5779        156
 3.50   0.0001    311.2099    437.7659 -43.62      1739183     2.607     2.441      4.146     83.81222  12.4491        157
 3.50   0.0086    223.2607   1224.6036  78.31     10561.27     1.516     1.478      3.261     83.84064  17.9907        158
 5.42   0.0770    216.7025    881.1840 -54.73     1180.892     2.069     0.991      5.938     83.76482  20.3695        159
 5.10   0.0519    216.7890    739.7997 -42.28     1754.477     1.741     1.273      6.226      83.7743  19.9396        160
 6.45   0.1357    214.2048    791.6278 -30.96     670.3536     1.058     0.805      4.437      83.7743  20.9842        161
 3.50   0.0255    221.7073    773.3235 -32.37      3565.76     1.355     1.291      3.061     83.72688  19.1696        162
 7.84   0.0513    226.2015    323.4709 -79.71     1773.815     2.135     1.048     11.404     83.82169  19.9277        163
 3.50   0.0092    227.7619    413.5854 -10.81     9909.909     1.777     1.704      4.273     83.81222  18.0598        164
 3.90   0.0131    243.0269    111.0770 -85.42     6919.483     2.459     1.782      5.814      83.7743  18.4498        165
 3.85   0.0051    254.5490    611.1826 -42.66      17924.3     2.938     2.403      7.244     83.80274  17.4164        166
 8.40   0.0767    219.4943    355.8112 -87.60     1185.232     0.970     0.738      5.820     83.75534  20.3655        167
 5.83   0.2608    217.8277    490.9034 -42.71     348.6681     0.826     0.662      3.374     83.73637  21.6940        168
 5.62   0.2283    220.5030   1401.0468  87.59     398.1186     0.818     0.692      3.214     83.68893  21.5500        169
 5.80   0.0562    229.3320    546.3625 -55.24     1618.598     1.658     1.241      6.888     83.78378  20.0272        170
 7.05   0.1916    220.1687    682.8414 -44.32     475.0855     0.763     0.566      4.008     83.82169  21.3581        171
 8.70   0.2107    219.4618   1504.4998 -42.42     431.6117     0.507     0.491      3.044     83.73637  21.4623        172
 8.81   0.0602    229.3480   1139.5793 -55.00     1512.309     1.218     0.886      7.308     83.80274  20.1009        173
 3.50   0.0307    238.4117    837.2283  -4.95     2966.703     1.900     1.631      4.645     83.80274  19.3693        174
 8.28   0.0585    234.5157   1125.2993  52.96     1552.289     1.342     0.969      8.052     83.68893  20.0726        175
 7.75   0.2481    225.3229    245.2989 -46.35     366.5149     0.557     0.343      3.143     83.72688  21.6398        176
 5.30   0.0250    251.0283   1371.3765  89.82     3633.644     2.137     1.870      8.287     83.80274  19.1491        177
 4.97   0.1023    238.7551   1477.4154 -79.33     889.5878     1.415     0.958      4.379     83.79326  20.6770        178
 3.50   0.2946    232.0917   1551.6677 -15.31     308.7273     0.982     0.730      2.349     83.74586  21.8261        179
 8.14   0.0711    243.2605   1003.4316  52.63     1279.976     1.817     0.923      9.968     83.79326  20.2820        180
 7.02   0.1265    236.3093    988.6573  43.43      719.125     0.571     0.337      2.514     83.73637  20.9080        181
 5.29   0.0824    247.7249   1413.0067  28.77     1104.885     1.334     1.255      5.305     83.83117  20.4417        182
 5.04   0.0363    249.5194    105.7911   2.81     2504.509     1.439     1.285      5.419      83.7743  19.5532        183
 4.94   0.1101    250.4650   1549.2739  56.31     825.9379     1.187     1.119      3.733      83.7174  20.7576        184
 4.34   0.1516    248.7665    149.7034 -74.81     599.7827     1.105     0.982      3.311      83.7174  21.1050        185
 3.50   0.0711    252.5172   1351.3475  74.27     1278.242     1.149     1.098      3.002     83.72688  20.2835        186
 3.50   0.0001    350.5069   1344.3130 -42.05      1504664     2.491     2.331      4.005      83.7174  12.6064        187
 3.50   0.0009    286.7195   1484.9982 -49.94     104523.8     1.922     1.890      3.735     83.79326  15.5020        188
 3.50   0.0001    350.4288    889.1489 -51.07      1586098     2.471     2.298      3.988     83.81222  12.5492        189
 4.31   0.2102    247.9680    561.0484 -36.33      433.037     0.789     0.759      2.661     83.81222  21.4587        190
 4.49   1.3391    252.0717    693.4871  87.24     67.89635     0.780     0.499      2.548      83.7174  23.4704        191
 3.50   0.0003    317.8309    903.7722 -47.42     301493.8     2.281     2.056      3.901     83.80274  14.3518        192
 5.56   0.0868    264.0455    722.9034 -78.98     1047.609     1.563     1.200      5.976     83.69842  20.4995        193
 3.50   0.0039    281.0604   1520.9032  77.63     23297.45     1.707     1.610      3.517     83.72688  17.1317        194
 4.67   0.0362    270.0174   1272.1866  10.99     2515.435     1.606     1.425      5.387     83.78378  19.5485        195
 5.33   0.0875    264.5963    122.1109  35.52     1040.018     1.203     1.089      4.636     83.75534  20.5074        196
 6.34   0.3532    261.0303   1207.9852 -28.54     257.7339     0.792     0.771      3.633     83.81222  22.0221        197
 7.55   0.1614    260.7122    480.9927  -4.30     563.5323     0.730     0.679      4.382      83.7743  21.1727        198
 6.55   0.1147    267.1944   1386.6865  62.47     793.1615     1.193     0.861      5.781      83.7743  20.8016        199
 7.94   0.0549    267.9426    367.9836 -16.67     1657.049     1.169     1.084      7.017     83.79326  20.0017        200
 3.50   0.0012    302.1456    199.9429 -68.50     76349.72     1.878     1.851      3.721     83.75534  15.8430        201
 3.58   0.3183    270.5888   1248.9329  73.43     286.0339     0.966     0.736      2.590     83.82169  21.9090        202
 6.11   0.3261    268.0347   1308.6987  81.14     278.6652     0.722     0.661      3.188     83.68893  21.9373        203
 3.83   0.0175    296.6212   1411.9924 -41.41     5210.336     3.942     1.817      7.878      83.7743  18.7578        204
 3.50   0.0102    288.8372    513.3753  45.72     8936.746     1.965     1.884      4.525     83.78378  18.1721        205
 6.81   0.1448    271.9814    724.5231 -28.11       628.64     1.056     0.654      4.136     83.83117  21.0540        206
 7.19   0.1037    275.6381   1376.3872  47.37     878.1252     1.112     0.956      6.463     83.81222  20.6911        207
 4.21   0.0206    292.5286   1474.2451 -21.41     4418.501     1.648     1.543      4.876     83.75534  18.9368        208
 7.21   0.1217    274.7762   1368.9469 -38.15     747.9093     0.816     0.666      4.894     83.83117  20.8654        209
 5.42   0.1445    278.5136    555.7759  -0.33     629.4836     1.170     0.849      3.613     83.78378  21.0525        210
 3.50   0.0090    293.0670   1326.0547 -16.13     10089.19     1.557     1.490      3.458     83.75534  18.0404        211
 6.51   0.1272    285.0012    336.7218 -53.82     715.3106     1.218     0.836      5.245     83.80274  20.9138        212
 3.50   0.0026    345.4642    865.4515  68.20     34491.29     2.667     2.209      4.753     83.76482  16.7057        213
 3.98   0.0729    291.4327    246.6413 -42.86     1249.489     1.423     1.145      3.779     83.82169  20.3082        214
 6.26   0.2221    287.1843   1349.6359 -73.86     409.7651     0.946     0.646      3.481     83.80274  21.5187        215
 8.08   0.0550    287.2773    413.5685   4.22     1654.058     1.378     0.986      8.269      83.7743  20.0036        216
 3.50   0.0218    301.3028    561.8761  64.91     4179.456     1.496     1.466      3.627      83.7174  18.9972        217
 5.17   0.0327    307.6681     83.5607  77.64     2782.375     2.242     1.439      7.166     83.78378  19.4390        218
 7.58   0.1250    289.4767    887.4653  89.49     727.1324     1.088     0.499      3.975     83.70791  20.8960        219
 7.07   0.2259    287.0015   1409.7196 -78.71     402.9612     0.733     0.677      4.224     83.80274  21.5368        220
 6.60   0.2646    290.0248      4.5253 -89.49     312.1664     0.770     0.499      3.129     76.07247  21.8140        221
 3.50   0.0018    321.1644    695.6067  18.18     50695.04     1.751     1.746      3.613     83.79326  16.2876        222
 5.97   0.0789    294.5691    885.7814 -13.77     1153.619     1.123     0.927      4.893     83.79326  20.3948        223
 8.51   0.1724    291.4320    780.2241  20.03     527.7476     0.749     0.451      3.512      83.7743  21.2439        224
 7.31   0.1681    291.4998    263.9399   1.36     540.6888     0.800     0.500      3.292     83.69842  21.2176        225
 8.71   0.4003    293.4701   1215.5039  41.56     227.1634     0.503     0.496      3.019     83.73637  22.1592        226
 3.50   0.0211    320.5865    639.6574 -72.38     4304.554     2.552     2.058      5.680     83.80274  18.9652        227
 6.79   0.0713    310.4871    315.5935  75.60     1276.896     1.543     1.181      7.923      83.7743  20.2846        228
 3.95   0.0093    326.5734    593.7057   9.84     9821.788     2.204     2.157      5.883     83.75534  18.0695        229
 3.58   0.1531    308.9672    983.5322 -89.34     594.5889     1.095     0.936      2.715     83.80274  21.1145        230
 3.93   0.0922    316.0285    225.1859  -8.63     987.3627     1.406     1.010      3.577     83.81222  20.5638        231
 6.09   0.2291    313.3401   1267.5038 -80.40     396.7714     1.108     0.773      3.714      83.7174  21.5536        232
 5.51   0.2748    312.9740   1494.7429  69.90     331.2241     0.707     0.683      2.488     83.81222  21.7497        233
 7.36   0.2266    313.2003    152.7806  44.97     401.4999     0.966     0.349      3.217      83.7743  21.5408        234
 4.81   0.0547    323.7596    954.0675  34.07     1664.898     1.712     1.298      5.141     83.78378  19.9965        235
 7.82   0.1236    315.8162   1450.9539  36.11     736.1677     0.937     0.471      4.595     83.80274  20.8826        236
 7.00   0.4937    314.3308    849.3274 -45.15     184.1383     0.574     0.335      2.689      83.7174  22.3871        237
 6.50   0.1464    315.3412     14.2800 -48.47     621.4252     0.556     0.342      2.342     83.75534  21.0665        238
 4.30   0.0473    328.5149   1544.5862 -26.58     1923.558     1.277     1.216      3.782     83.78378  19.8397        239
 4.98   0.1275    323.7972    340.4164  -2.37     713.4877     0.969     0.925      3.116     83.75534  20.9165        240
 6.33   0.1648    320.7392    574.4925   2.94     551.6489     0.968     0.709      4.197     83.73637  21.1958        241
 7.26   0.1973    322.0090   1533.9908  88.97     461.0314     0.617     0.614      3.553     83.74586  21.3907        242
 8.11   0.0703    333.5910    456.0127  68.67     1294.261     1.959     0.921      9.978     83.75534  20.2699        243
 3.52   0.0413    331.3202     91.5481 -34.84     2200.928     1.269     1.223      2.988     83.73637  19.6935        244
 3.50   0.0032    354.8663    430.0782  69.89     28146.04     2.136     1.974      4.496     83.70791  16.9265        245
 8.29   0.3545    323.4671   1094.5117 -40.74     256.5358     0.503     0.496      3.015     83.73637  22.0271        246
 4.44   0.0410    334.2143   1438.9681 -28.19     2217.205     1.275     1.206      3.698     83.80274  19.6855        247
 6.00   0.2177    328.1156    242.1608 -47.14      417.878     0.846     0.659      3.716      83.7743  21.4974        248
 3.50   0.0025    396.2005   1459.7301 -69.74     36760.02     1.749     1.720      3.615     83.82169  16.6366        249
 7.25   0.0438    349.3573    918.1536 -17.18     2077.898     1.960     1.328     10.043     83.80274  19.7559        250
 4.63   0.3359    335.1936    621.9894  88.50     270.8213     0.944     0.753      2.647     83.75534  21.9683        251
 6.08   0.1418    335.6044    609.3881 -33.31     641.3505     1.015     0.880      4.253     83.74586  21.0323        252
 3.50   0.0188    349.0506     52.9444 -75.88     4852.498     1.460     1.426      3.501     83.78378  18.8351        253
 5.39   0.1129    336.1012    811.3517 -13.35     804.6395     1.234     0.834      4.261     83.66994  20.7860        254
 5.51   0.0717    338.5684    804.0828  -9.45     1268.808     2.421     0.881      6.392      83.7743  20.2915        255
 3.50   0.0017    367.2395    759.5045   0.66     52375.52     1.814     1.773      3.621      83.7174  16.2522        256
 3.50   0.0045    366.3889    441.0547  63.26     20184.04     1.821     1.679      3.707     83.83117  17.2875        257
 5.22   0.2067    340.1323   1502.1522 -46.05      440.137     0.823     0.663      2.567     83.76482  21.4410        258
 4.86   0.0870    347.0647     40.9018 -48.75     1045.925     1.214     1.063      4.235     83.75534  20.5012        259
 3.50   0.0004    394.2305    229.6230 -54.04     256506.9     2.065     1.986      3.806      83.7743  14.5273        260
 3.50   0.0095    360.3615   1498.8522 -13.18     9605.863     1.755     1.487      3.784     83.79326  18.0937        261
 4.03   0.0293    374.3507    752.1791  56.72     3107.495     2.655     1.473      5.784     83.80274  19.3190        262
 8.50   0.2396    346.4816   1590.4858 -44.46     379.4175     0.503     0.496      3.020     83.72688  21.6022        263
 3.50   0.0374    359.6993   1032.5001   1.10     2430.854     1.291     1.267      2.951     83.66045  19.5856        264
 6.50   0.1615    352.5026   1578.9888 -62.51     563.2714     1.060     0.657      4.071     83.74586  21.1732        265
 4.46   0.0463    358.7320    531.6467 -23.78     1966.063     1.407     1.248      4.412      83.7743  19.8160        266
 6.49   0.1675    353.4607    350.4528  44.32     542.9202     1.331     0.538      3.742     83.75534  21.2132        267
 4.83   0.0532    362.4112   1414.2524  82.41     1712.069     1.495     1.276      5.314     83.83117  19.9662        268
 5.16   0.1311    355.1958   1397.0649  13.00     694.6718     1.008     0.826      3.497     83.83117  20.9456        269
 6.24   0.2000    354.0997    825.8558  43.53     454.5318     0.841     0.667      3.537     83.68893  21.4061        270
 7.70   0.2200    352.6707   1462.6721 -45.06     413.2208     0.573     0.336      2.725     83.70791  21.5095        271
 7.64   0.1480    352.5137    537.4805 -18.75     614.3467     0.973     0.412      3.971     83.72688  21.0790        272
 5.92   0.0991    360.6982    368.3151 -71.05     917.0361     1.237     1.105      4.968     83.68893  20.6440        273
 5.32   0.2090    358.4791   1046.1855 -49.17     435.4968     1.116     0.727      4.098     83.81222  21.4525        274
 3.50   0.0384    372.3844   1082.2842   6.90     2370.311     1.675     1.545      4.461     83.80274  19.6130        275
 7.16   0.2085    359.7108   1449.0054  10.60     436.2569     0.717     0.690      4.007     83.75534  21.4506        276
 8.42   0.1362    358.3394    926.3115 -46.32     667.7955     0.570     0.337      3.310     83.74586  20.9884        277
 5.38   0.0693    368.4609    208.4732 -58.12     1313.309     1.404     1.135      5.399     83.74586  20.2541        278
 3.51   0.0300    371.9202    990.9650  30.20     3029.984     1.343     1.288      3.272     83.76482  19.3464        279
 3.93   0.0507    369.5190     69.8423 -34.13     1795.711     1.455     1.343      4.243     83.76482  19.9144        280
 5.34   0.1986    361.7469     14.9959   3.33     458.6093     0.724     0.684      2.392     83.85011  21.3964        281
 6.45   0.1300    365.2277    940.2377  16.16     700.2324     0.952     0.866      4.682     83.80274  20.9369        282
 7.16   0.1983    363.2267    949.9979   0.09     458.7716     0.685     0.419      3.038      83.7743  21.3960        283
 3.50   0.1216    374.2940     85.4472 -24.09     747.7122     1.144     1.070      2.758     83.70791  20.8657        284
 3.50   0.0022    397.1705    352.8746 -57.49     41609.77     1.772     1.711      3.606      83.7743  16.5020        285
 7.14   0.0683    381.6652      9.4809 -89.02      1331.05     1.498     1.338      8.802      83.7174  20.2395        286
 4.15   0.0243    395.6043    625.2817  88.59     3749.714     2.408     1.925      7.056     83.78378  19.1150        287
 3.50   0.0004    418.7044    431.5894 -51.63     234235.1     2.003     1.969      3.808     83.75534  14.6259        288
 4.78   0.0630    381.4241     65.6093  38.93     1445.168     1.432     1.240      3.963     83.78378  20.1502        289
 3.77   0.1443    379.2187    510.2682 -49.00     630.7242     1.289     0.971      3.247     83.81222  21.0504        290
 4.60   0.0549    379.1660    123.8193   9.54     1657.097     1.236     1.155      3.220     83.78378  20.0016        291
 3.50   0.0008    414.6540    835.7775 -88.21     113084.2     1.898     1.854      3.729     83.82169  15.4165        292
 6.67   0.2578    376.9167    139.8434 -47.62     352.8401     0.844     0.658      3.746     83.75534  21.6811        293
 3.50   0.0104    392.8817   1087.1349  45.19     8778.705     1.515     1.474      3.405      83.7174  18.1914        294
 8.44   0.0975    379.7917      1.3926 -71.39     707.5939     0.768     0.446      4.605     63.55814  20.9255        295
 6.78   0.1882    381.1964   1483.8033 -48.17     483.3983     0.760     0.561      3.361     83.76482  21.3392        296
 4.06   0.0886    388.0123   1194.0193 -49.63     1026.972     1.165     1.082      3.237     83.76482  20.5211        297
 7.07   0.1116    382.6904    248.5648  30.01      814.861     0.953     0.535      4.158     83.74586  20.7723        298
 7.37   0.3592    380.6730    934.2947  46.82     253.1492     0.557     0.343      3.026     83.72688  22.0416        299
 3.50   0.1416    388.8528    259.2482 -78.61     642.4707     1.105     0.958      2.822     83.78378  21.0304        300
 6.18   0.0514    410.7338      2.1228 -87.64      1413.46     3.173     0.966      8.621     66.83526  20.1743        301
 5.41   0.0359    402.6141    525.0059  62.91     2534.904     2.250     1.386      7.317     83.72688  19.5401        302
 3.50   0.1333    390.9412     93.8525 -22.46     682.6059     1.212     1.065      3.343     83.75534  20.9646        303
 3.50   0.3632    389.6815   1166.6106  43.34     250.5478     0.952     0.853      2.452     83.79326  22.0528        304
 3.50   0.0638    395.5294    976.0341 -32.91     1426.238     1.374     1.250      3.568     83.78378  20.1645        305
 6.27   0.2568    390.4991   1063.9867 -87.38     354.1421     0.786     0.700      3.590     83.74586  21.6771        306
 7.39   0.3335    385.5190    101.4717  48.46     272.6427     0.501     0.498      2.752     83.72688  21.9610        307
 3.50   0.0011    436.9851    250.2817  81.91      83612.4     1.897     1.875      3.735     83.80274  15.7443        308
 4.28   0.0185    419.8282    157.4336  30.52     4909.308     2.057     1.756      5.362     83.79326  18.8224        309
 3.50   0.0001    460.3299    806.0066 -41.85     724835.5     2.251     2.119      3.892     83.81222  13.3994        310
 7.18   0.1929    393.4946    144.2016 -88.04     471.4802     0.993     0.732      3.655     83.76482  21.3663        311
 5.30   0.3278    391.8295    682.1611  45.39     277.6304     0.806     0.665      2.353     83.80274  21.9413        312
 5.51   0.1331    400.5107    811.0035   5.62     683.2561     1.085     0.954      3.608     83.75534  20.9635        313
 4.94   0.0612    412.5052   1560.7510 -60.60     1485.076     1.948     1.122      5.107     83.69842  20.1206        314
 8.23   0.5553    398.3204   1256.6912  45.62     163.7534     0.561     0.341      2.804     83.72688  22.5145        315
 3.50   0.0045    423.2346    924.7899  78.66     20285.91     1.649     1.634      3.559     83.80274  17.2820        316
 5.62   0.0260    420.5860    132.6595 -29.66     3504.118     3.142     2.146     10.889     83.78378  19.1886        317
 3.50   0.0799    406.1619    280.5759 -26.22     1138.953     1.233     1.062      2.774     83.79326  20.4087        318
 4.59   0.4254    400.9016    984.5642  24.92      213.673     1.140     0.580      3.128     83.69842  22.2256        319
 3.77   0.0545    414.2244    557.6135  74.50     1669.467     1.819     1.544      5.088      83.7743  19.9936        320
 7.71   0.1056    413.5547    178.6849  -9.00     861.3544     0.986     0.478      4.840     83.76482  20.7120        321
 4.29   0.0691    417.9401   1203.0493  58.41     1316.815     1.442     1.326      4.094     83.76482  20.2512        322
 4.85   0.0306    429.7754    717.6069  51.83       2970.2     2.542     2.004      8.665     83.79326  19.3680        323
 4.19   0.0315    425.8257   1177.7605  39.49      2892.96     2.049     1.609      5.452     83.80274  19.3966        324
 3.50   0.0857    418.4518    772.9769 -81.00     1062.802     1.324     1.183      3.252     83.83117  20.4839        325
 5.20   0.1058    416.1201    938.7930  36.52     859.8579     1.551     0.973      4.714     83.78378  20.7139        326
 3.97   0.0041    466.8566    848.9338  22.57     22368.57     8.997     2.542     17.862     83.75534  17.1759        327
 5.42   0.0654    418.9928   1579.1770 -65.58     1392.033     1.144     1.108      5.236      83.7743  20.1909        328
 5.31   0.1059    421.8029    629.8021 -20.41     859.3569     1.587     1.005      5.289     83.78378  20.7146        329
 4.99   0.1548    419.8560   1090.8813 -59.51      587.423     0.852     0.848      2.626     83.74586  21.1276        330
 5.71   0.1780    417.2318   1294.5748   1.25     510.9795     1.012     0.728      3.730     83.76482  21.2790        331
 3.50   0.1076    423.3969   1062.2841  -0.26     845.8395     1.121     1.021      2.616      83.7743  20.7318        332
 3.50   0.0134    432.0715   1420.5468  -2.38     6769.341     1.538     1.426      3.396     83.75534  18.4736        333
 3.81   0.1085    425.2731    298.3063  83.28     838.1924     1.072     1.002      2.188     83.73637  20.7416        334
 3.50   0.0034    449.3139     19.5244  73.34     26495.98     1.777     1.668      3.645      83.7174  16.9920        335
 7.84   0.2031    419.6560    669.6992 -47.12     447.5905     0.567     0.338      3.403     83.68893  21.4228        336
 3.50   0.0352    433.0534    149.3967   7.82     2587.689     1.414     1.310      3.471     83.84064  19.5177        337
 3.50   0.3116    425.6503   1007.2427 -59.62     292.0929     0.984     0.781      2.363     83.80274  21.8862        338
 5.58   0.0763    434.6316    118.3425  47.66     1192.491     1.701     1.614      6.018     83.81222  20.3589        339
 4.78   0.1697    429.4382   1307.4174  -7.30     536.5151     0.909     0.857      3.041     83.81222  21.2260        340
 3.77   0.0206    444.1205    120.4231 -29.77     4411.366     1.819     1.602      4.319     83.78378  18.9386        341
 3.50   0.0333    439.0537    303.9865  66.61     2736.324     1.314     1.283      3.109     83.81222  19.4571        342
 3.50   0.0031    456.8200     32.7297  43.75     29821.55     1.735     1.718      3.621     83.83117  16.8637        343
 4.20   0.1301    432.5634    404.8491 -22.27     699.3746     1.088     0.930      3.386     83.80274  20.9382        344
 4.50   0.1343    432.7832    351.6000  15.53     677.5114     0.946     0.927      2.670     83.76482  20.9727        345
 3.50   0.0195    446.5916    882.1754   6.37     4656.165     2.773     1.769      5.910     83.78378  18.8799        346
 6.89   0.1011    436.9601   1380.9481 -20.67     899.6537     1.230     0.923      6.066     83.78378  20.6648        347
 3.50   0.0080    494.7540     80.8511  81.65     11373.01     4.085     2.761      7.917     83.81222  17.9103        348
 5.02   0.0737    442.8858    653.5627  22.19     1235.014     1.132     1.042      3.816      83.7743  20.3208        349
 4.30   0.0835    442.8949    172.7214 -61.46     1088.289     1.179     1.158      3.499     83.70791  20.4581        350
 3.67   0.0012    532.1556    517.1599  31.15     77212.52     6.382     5.170     15.388     83.80274  15.8308        351
 5.44   0.1484    441.3893    957.9933  -4.80     612.8178     1.086     0.935      4.258     83.74586  21.0817        352
 5.99   0.6672    436.5044     52.4720 -49.04     136.3012     0.502     0.497      2.104     83.73637  22.7138        353
 5.24   0.0861    444.7752   1503.9323 -21.73     1056.884     1.150     1.058      4.143     83.80274  20.4899        354
 3.50   0.0096    462.7179    466.8706  48.47     9518.128     1.637     1.533      3.638      83.7174  18.1036        355
 6.81   0.3117    442.5129   1566.0204 -32.58      291.887     0.784     0.317      3.343     83.78378  21.8870        356
 4.69   0.0803    453.5555   1222.9102 -74.13     1132.568     1.373     1.168      4.054     83.74586  20.4148        357
 3.70   0.0561    452.0454   1531.8118  14.78     1621.435     1.192     1.110      3.267     83.79326  20.0253        358
 5.76   0.1443    449.5298   1353.0096  87.22     630.7425     0.768     0.705      3.255     83.82169  21.0504        359
 8.53   0.1936    445.4016    766.8143 -18.77      469.811     0.755     0.450      4.527     83.76482  21.3702        360
 4.23   0.1901    450.5846   1129.8898  22.54     478.6417     1.048     0.968      3.110     83.79326  21.3500        361
 3.50   0.0110    470.5999    252.7415  50.48     8266.602     1.955     1.492      3.891     83.84064  18.2567        362
 3.50   0.0286    460.1046   1094.5945  32.29     3180.834     1.559     1.310      3.538     83.76482  19.2936        363
 4.92   0.0631    472.2308   1131.0477  84.79     1442.308     2.611     0.936      6.036     83.82169  20.1524        364
 4.00   0.0403    460.4592    723.5194  -9.75     2256.934     2.008     1.337      4.651     83.74586  19.6662        365
 5.58   0.0666    466.1232   1196.8052  86.46      1366.58     1.390     1.287      5.422     83.80274  20.2109        366
 3.50   0.0077    471.0899    733.2233 -16.58     11853.98     1.569     1.510      3.441      83.7743  17.8653        367
 6.42   0.1666    458.1788   1383.9647 -87.43     546.1537     0.921     0.751      3.680     83.80274  21.2067        368
 7.17   0.2218    456.0132    483.0009  -0.13      410.217     0.616     0.612      0.337      83.7743  21.5175        369
 3.50   0.0060    477.0041    921.4211 -46.24     15225.84     1.594     1.543      3.428      83.7743  17.5935        370
 5.13   0.0799    464.4150    127.5821 -24.63     1138.513     1.678     1.082      4.580     83.78378  20.4092        371
 8.09   0.1787    456.4054   1235.2415  18.80     509.1686     0.756     0.450      3.447     83.80274  21.2828        372
 4.75   0.1062    464.9676    559.8478  62.59     857.1502     1.153     1.063      3.742     83.81222  20.7174        373
 4.12   0.0082    495.0766   1185.2926 -27.32        11079     3.721     2.578      8.960     83.72688  17.9387        374
 4.50   0.0248    488.1509    838.1351  89.90     3663.985     3.114     1.271      6.021     83.76482  19.1401        375
 3.64   0.0154    477.1216   1275.4811  24.79     5909.478     1.520     1.447      3.638     83.74586  18.6211        376
 3.50   0.0557    478.1282    680.9530 -69.84     1633.016     1.584     1.118      3.645     83.76482  20.0175        377
 5.67   0.0804    471.8579    780.1460  38.05      1131.58     1.169     1.023      5.205     83.75534  20.4158        378
 5.34   0.2541    468.2286    662.2830   5.40     358.1062     0.899     0.747      3.368      83.7743  21.6650        379
 3.50   0.0141    483.0058   1069.1318 -13.73     6434.452     1.425     1.393      3.186     83.83117  18.5287        380
 6.34   0.0677    479.9701   1518.1163 -43.91     1344.206     1.789     1.243      8.620      83.7743  20.2288        381
 3.71   0.0780    475.1341   1166.8962   9.63     1166.768     1.153     1.133      3.146     83.75534  20.3825        382
 5.08   0.0911    483.3887    427.0775 -89.12     999.0235     1.694     1.187      4.626     83.82169  20.5511        383
 5.27   0.0576    480.2167   1308.2787  -2.92     1580.668     1.314     1.114      4.759     83.80274  20.0529        384
 7.12   0.6406    472.5219   1356.9840 -32.96     142.0681     0.773     0.322      2.313     83.80274  22.6688        385
 3.50   0.0015    511.5095   1300.7717 -86.77     61080.16     1.829     1.817      3.775     83.75534  16.0852        386
 6.07   0.0602    487.8234    422.9539 -44.70     1512.307     2.045     1.076      9.006     83.81222  20.1009        387
 3.88   0.0135    503.2232    761.2128  -1.75     6736.634     2.439     2.160      6.362      83.7743  18.4789        388
 5.83   0.1350    485.4365    827.2610  65.73     673.9488     0.982     0.931      4.596     83.79326  20.9784        389
 6.04   0.1839    484.0174   1228.0122 -43.81     494.6213     0.884     0.535      2.751      83.7743  21.3143        390
 5.44   0.3541    484.1517    253.7907 -45.40     257.0523     0.754     0.561      2.609     83.82169  22.0249        391
 3.69   0.0066    514.5347   1459.5621  24.61     13832.17     4.988     1.923      9.671     83.79326  17.6978        392
 4.96   0.1086    492.2638    572.9797 -16.57     838.3586     1.051     0.998      3.967     83.81222  20.7414        393
 5.97   0.8665    485.3231    344.3348 -44.47     104.9129     0.573     0.335      1.733     83.70791  22.9979        394
 6.65   0.6116    484.5451    941.4951  -5.88     148.6625     0.500     0.498      2.351     83.72688  22.6195        395
 3.50   0.0001    586.8701   1314.5153 -35.49      1619523     2.943     2.338      4.073     83.72688  12.5265        396
 4.69   0.0363    500.9420   1308.7638 -71.74      2505.58     1.465     1.321      4.841     83.79326  19.5527        397
 8.57   0.1562    487.2367    565.0085  -0.36     582.7737     0.709     0.425      4.145     83.80274  21.1362        398
 3.50   0.0226    501.1490    862.2006 -15.70     4023.704     1.401     1.338      3.188     83.84064  19.0384        399
 3.50   0.0579    497.0681    364.6265  11.29     1571.107     1.269     1.120      2.824     83.79326  20.0595        400
 4.58   0.1020    494.4022   1419.9250   1.42     892.4603     1.206     0.979      3.344     83.82169  20.6735        401
 8.07   0.6966    489.7211   1345.3462  41.28     130.5446     0.558     0.341      2.890     83.73637  22.7606        402
 3.50   0.0135    512.4128   1308.8362  84.73     6740.789     1.572     1.419      3.567     83.80274  18.4782        403
 3.73   0.1678    501.8901    441.4094 -66.76     542.1299     1.009     0.950      2.263     83.75534  21.2147        404
 3.50   0.0000    630.2510    481.5388 -33.19      2505940     2.926     2.732      4.494     83.75534  12.0526        405
 3.73   0.0235    509.0456    162.5765  -6.42     3878.459     2.537     1.351      5.082     83.81222  19.0784        406
 3.85   0.1590    504.1364   1567.5875 -65.68     572.7557     0.991     0.923      2.264     83.83117  21.1551        407
 3.92   0.0225    512.8853   1177.8151 -45.51     4037.978     1.401     1.323      3.407     83.78378  19.0346        408
 7.33   0.0881    504.3701    324.4864  46.21     1032.615     0.987     0.965      5.923     83.78378  20.5152        409
 4.86   0.0678    509.0707    451.7997  -5.36     1343.258     1.341     1.207      4.248     83.82169  20.2296        410
 8.41   0.2184    503.9957   1333.5005  57.51     416.5613     0.786     0.317      3.486     83.76482  21.5008        411
 3.73   0.0312    518.2574    640.2863 -38.45     2910.938     1.631     1.509      4.066     83.74586  19.3899        412
 5.36   0.1395    508.4677    306.9448   0.37     652.0691     1.117     0.912      4.244     83.74586  21.0143        413
 4.07   0.0600    517.4010   1517.8311  75.49     1515.308     1.287     1.158      3.647     83.76482  20.0987        414
 7.74   0.1423    509.1456   1383.9956  64.97     640.0258     1.249     0.334      4.690     83.85011  21.0345        415
 6.81   0.1458    509.5531    323.9884 -90.00      624.403     0.835     0.689      4.626     83.80274  21.0613        416
 7.53   0.3759    507.2867    614.3271 -42.62      241.847     0.554     0.344      2.676      83.7174  22.0911        417
 4.87   0.0624    519.7739    852.3243  66.09      1459.06     1.326     1.287      4.816      83.7743  20.1398        418
 5.46   0.4326    510.5128    805.0031   2.01     210.2872     0.785     0.499      2.393     83.76482  22.2430        419
 6.18   0.1506    516.0262    165.0445  45.66     604.6669     0.899     0.528      3.411     83.83117  21.0962        420
 6.00   0.1653    519.5546    580.8542  -2.29     550.4005     0.976     0.907      4.146      83.7743  21.1983        421
 6.68   0.2129    519.1706    828.1560  50.06     427.5754     0.761     0.565      3.256     83.82169  21.4725        422
 6.99   0.3244    523.4246    328.6115  68.58     280.4718     1.063     0.316      3.123     83.78378  21.9303        423
 3.50   0.0100    539.3286    998.3593  84.68     9125.437     1.542     1.517      3.444     83.78378  18.1494        424
 6.18   0.1083    528.0428    163.3419  63.63     840.1469     1.365     0.877      5.284     83.76482  20.7391        425
 6.90   0.2908    523.0544   1056.4949  89.58     312.7017     0.784     0.500      2.736     83.72688  21.8122        426
 3.50   0.0538    543.1082    932.6009 -68.07     1689.551     2.481     1.055      4.857     83.75534  19.9806        427
 3.50   0.0420    535.0591    402.7671  29.08     2166.834     1.780     1.366      3.985     83.80274  19.7104        428
 7.88   0.6939    522.5049    307.4640 -47.04     131.0827     0.508     0.490      2.700     83.75534  22.7561        429
 3.50   0.0025    571.7572   1241.3885 -60.45      36983.3     2.349     1.799      3.902     83.79326  16.6300        430
 3.65   0.1254    530.7306   1565.1608  16.56     725.8695     1.043     0.936      2.965     83.78378  20.8979        431
 8.12   0.3748    536.3256   1598.6907  45.85     195.9727     0.563     0.340      2.697     67.63853  22.3195        432
 8.45   0.1596    535.6013    282.7714  18.09      569.983     0.762     0.451      4.191     83.75534  21.1603        433
 5.10   0.1151    545.2690    849.4210 -69.04     790.4571     1.064     0.975      3.369     83.81222  20.8053        434
 3.50   0.0073    558.0374   1040.2272  -7.47     12498.38     1.701     1.560      3.684     83.79326  17.8079        435
 3.51   0.0037    595.7530    781.1851 -54.10     24553.82     4.090     3.812      9.750     83.80274  17.0747        436
 3.50   0.0106    570.6760   1446.9576  21.73     8603.034     3.238     2.105      6.848     83.76482  18.2134        437
 3.50   0.0105    570.2459     44.0406  46.68     8690.956     2.469     1.733      5.196     83.79326  18.2023        438
 3.50   0.0018    581.1895    317.4522  39.54     49980.88     1.861     1.787      3.716     83.83117  16.3030        439
 3.50   0.0792    554.9692    777.1648 -34.96     1149.427     1.123     1.087      2.447     83.79326  20.3988        440
 6.03   0.1535    552.6613    964.6931 -23.76     592.3045     1.003     0.910      4.598     83.73637  21.1186        441
 7.04   0.8007    547.7064     70.3128  43.83     113.5406     0.551     0.345      1.903     83.70791  22.9121        442
 5.82   0.0574    558.7036   1404.2056  18.45     1584.985     2.676     1.080     10.577      83.7743  20.0499        443
 5.31   0.1027    558.3064   1067.8971  72.61      885.064     1.433     1.061      4.724     83.70791  20.6826        444
 5.80   0.1610    553.8707    804.1193  58.41     564.7296     0.871     0.852      4.083     83.73637  21.1704        445
 3.50   0.0018    579.6451    143.1512 -59.43      50040.2     1.755     1.734      3.601     83.81222  16.3017        446
 4.35   0.0408    563.8168    137.7229  87.70      2231.61     1.326     1.272      3.900     83.81222  19.6785        447
 4.89   0.3554    555.9983   1593.9867 -86.52     252.3446     0.609     0.609      2.262     82.57105  22.0450        448
 3.50   0.1108    561.9505    904.2209  47.83     821.0435     1.128     0.981      2.799     83.80274  20.7641        449
 3.50   0.1401    561.8150    839.2224 -45.51     649.3442     1.397     0.994      3.042     83.76482  21.0188        450
 3.50   0.2566    560.1713   1502.7568  42.84     354.7184     0.901     0.859      2.542     83.82169  21.6753        451
 5.23   0.1198    565.9980    630.5018 -86.25     758.9603     1.043     0.937      3.854     83.74586  20.8495        452
 5.94   0.1062    563.3209   1168.8219 -29.68     856.6696     1.075     0.870      4.265     83.79326  20.7180        453
 6.08   0.2467    561.7631    592.9919  56.29        368.9     0.812     0.499      2.768     83.80274  21.6327        454
 3.87   0.0285    575.2853   1000.2173 -13.71     3195.782     1.831     1.677      4.742     83.78378  19.2886        455
 5.34   0.1367    569.1505    112.3414 -73.83     665.4122     1.170     0.952      5.001      83.7743  20.9923        456
 6.44   0.0942    566.4319   1114.7029  29.81     965.3331     1.122     0.947      5.485     83.70791  20.5883        457
 5.48   0.0646    577.1334    737.8950  47.17     1408.345     1.661     1.356      5.751     83.75534  20.1782        458
 6.48   0.1191    569.5100   1108.6602  37.72     763.4408     1.061     0.826      4.368     83.74586  20.8431        459
 8.54   0.1263    568.1776    708.6043 -71.45      720.368     0.755     0.449      4.147      83.7743  20.9061        460
 6.22   0.0897    573.9214    547.8975  -1.63     1013.295     1.188     0.990      5.679     83.70791  20.5357        461
 3.50   0.0273    583.4811     74.1990   9.02     3336.643     1.344     1.330      3.233     83.78378  19.2417        462
 5.34   0.0783    578.4715    677.8019  53.07     1162.882     1.391     1.379      5.052     83.82169  20.3862        463
 8.32   0.0966    577.0109    481.0588 -36.24     942.1844     1.087     0.936      6.091     83.83117  20.6147        464
 8.45   0.2581    569.5167   1177.4861 -43.45     352.2453     0.501     0.499      3.003     83.72688  21.6829        465
 4.79   0.0749    577.8525    843.5962  24.23     1215.186     1.947     0.983      4.831     83.84064  20.3384        466
 7.66   0.1761    574.1826   1211.1676  39.77     516.9082     0.754     0.567      3.673     83.80274  21.2665        467
 8.34   0.0953    577.6614   1351.6525 -44.94     954.4944     1.085     0.649      6.512     83.76482  20.6006        468
 4.56   0.2146    577.8090    694.9749  84.60       424.02     0.901     0.753      2.827     83.78378  21.4815        469
 5.90   0.1355    578.4717   1555.6345  -1.38     671.5391     0.992     0.783      3.716     83.78378  20.9823        470
 5.54   0.0693    584.3524   1171.3678  21.89     1312.686     1.265     1.146      5.363     83.81222  20.2546        471
 6.00   0.1046    582.9677   1099.5016 -67.28     869.1411     1.245     0.945      5.165     83.70791  20.7023        472
 3.92   0.2339    581.5492   1485.3169  36.20     388.8459     0.999     0.784      2.307     83.74586  21.5756        473
 6.28   0.1527    582.4998   1183.5687  39.48     595.2087     0.913     0.910      4.770     83.70791  21.1133        474
 4.14   0.1792    583.6616    209.6294  40.34     507.8795     0.985     0.860      2.743     83.79326  21.2856        475
 5.08   0.0906    593.0610    881.0075 -85.22     1005.606     1.434     1.118      4.535     83.85011  20.5439        476
 5.23   0.0819    587.6546   1137.9164  -1.23     1109.916     1.103     1.002      4.368     83.72688  20.4368        477
 3.50   0.1928   1003.4000   1236.6925  33.84     471.7547     1.153     0.893      2.847     83.75534  21.3657        478
 3.81   0.1209   1598.6646    709.2863   9.91     608.5978     1.295     0.906      3.230     67.75587  21.0892        479
 3.78   0.0161   1596.5784    653.1301 -23.18     5116.927     2.135     2.022      5.154     75.74812  18.7775        480
 5.36   0.0443   1599.1133     17.0033   3.58      1612.49     1.930     0.883      6.173     65.79323  20.0313        481
 3.50   0.0297   1593.4664    372.3283  55.11     3050.616     1.717     1.437      4.153     83.34657  19.3390        482
 5.04   0.0568   1592.2495   1383.2131 -10.91     1602.038     1.585     1.167      5.215     83.82169  20.0383        483
 8.57   0.2467   1593.4902    299.4875  45.16      366.818     0.505     0.494      3.031      83.3275  21.6389        484
 6.92   0.3120    895.5063   1241.5118 -45.82     291.3627     0.502     0.498      2.293     83.70791  21.8889        485
 7.08   0.2559    891.8006   1272.2083 -46.43     355.4708     0.751     0.561      3.595     83.74586  21.6730        486
 6.33   0.1326    891.1500   1212.9169  42.06     685.7492     0.840     0.664      3.862     83.74586  20.9596        487
 4.18   0.0206    887.5593    324.2406  14.96     4414.646     2.341     1.708      5.406     83.82169  18.9378        488
 3.84   0.0226    884.7941   1303.2223  72.74     4030.068     2.260     1.543      4.909      83.7743  19.0367        489
 3.50   0.0698    887.7294    679.5152 -40.67     1303.239     1.479     1.212      3.496      83.7174  20.2624        490
 5.47   0.2722    888.1436    989.1344 -51.62     334.1383     0.810     0.667      3.272     83.75534  21.7402        491
 3.59   0.0201    884.8283   1498.7874 -57.64     4538.456     1.388     1.324      3.183     83.80274  18.9077        492
 8.05   0.1470    886.8381     12.8772 -45.02     618.7753     0.849     0.667      4.703     83.76482  21.0712        493
 4.72   0.0338    883.9120    337.2602  25.10     2690.649     2.132     1.395      6.272     83.74586  19.4754        494
 5.13   0.2365    882.1964    443.7809  37.39     384.7049     0.897     0.861      3.441      83.7743  21.5872        495
 7.02   0.8516    911.4836    457.5420 -54.52     106.7882     0.501     0.497      2.831     83.73637  22.9787        496
 4.74   0.0144    876.9567   1175.6000 -50.85     6304.911     2.415     2.132      7.799     83.82169  18.5508        497
 3.50   0.0696    878.5925    670.2439 -25.79     1308.127     1.603     1.419      4.310     83.81222  20.2584        498
 4.51   0.0042    877.6136    222.5462  89.06     21807.64     8.770     3.637     19.963     83.81222  17.2035        499
 3.50   0.0345    876.6187    959.5078 -85.22     2634.269     1.323     1.228      3.085      83.7743  19.4983        500
 3.50   0.0001    858.2025   1223.1316 -41.51      1495824     3.560     2.601      4.202     83.82169  12.6128        501
 3.50   0.0166    866.6861    937.9435  45.39     5491.671     2.665     1.610      5.366     83.74586  18.7007        502
 3.50   0.0645    868.4059    642.1082  69.20     1410.454     1.205     1.117      2.827     83.74586  20.1766        503
 5.18   0.2269    868.9894   1434.9409   8.40     401.3007     0.790     0.773      2.663     83.84064  21.5413        504
 3.50   0.1273    865.8255    453.1175 -39.68       714.78     1.236     1.096      3.170      83.7743  20.9146        505
 4.98   0.0989    909.1953   1573.9948 -23.96     920.0089     1.183     1.087      4.217     83.74586  20.6405        506
 6.92   0.0680    864.8615   1176.0391  -2.97     1337.292     1.261     1.092      7.372     83.78378  20.2344        507
 7.16   0.2018    865.7186    814.9726  13.26      450.828     0.730     0.678      3.563     83.78378  21.4150        508
 3.50   0.1466    863.9438   1477.8932  44.93      620.117     1.143     1.013      3.064     83.73637  21.0688        509
 6.75   0.7513    909.2665    758.5992 -71.30     121.1688     0.750     0.451      3.012     83.82169  22.8415        510
 5.86   0.1227    863.0336    772.0253  22.92     741.6152     1.279     1.044      4.698     83.78378  20.8746        511
 5.75   0.0856    863.3834    353.6013 -40.94     1062.342     1.103     1.055      5.158     83.76482  20.4843        512
 3.72   0.0204    858.6947   1155.9232 -63.95     4457.466     1.483     1.379      3.591     83.72688  18.9273        513
 4.84   0.0734    861.0693    266.6051  30.85     1240.225     1.553     1.084      4.712     83.82169  20.3162        514
 3.99   0.0836    859.7127   1552.9141  25.97      1087.36     1.141     1.057      3.419      83.7174  20.4591        515
 4.76   0.1658    861.1344    635.0600   0.49     548.4576     1.181     0.762      3.626     83.75534  21.2021        516
 3.93   0.0244    857.5074   1338.1282 -56.23     3732.267     1.677     1.461      4.500     83.73637  19.1201        517
 6.14   0.0895    857.9104    572.8206 -34.87     1016.571     1.648     0.934      5.493     83.76482  20.5322        518
 4.34   0.0533    854.6434    543.5767 -83.92     1707.465     1.618     1.271      4.952     83.81222  19.9691        519
 4.70   0.0786    907.1750    657.8374  42.10     1157.586     1.317     1.212      3.690     83.79326  20.3911        520
 6.39   0.1284    854.6082   1428.6935 -24.72     708.6425     1.331     0.827      4.389     83.76482  20.9239        521
 6.45   0.1089    854.1462   1346.3501   5.87     835.2911     1.124     0.849      5.228      83.7743  20.7454        522
 6.13   0.2595    854.8940    685.1011  43.42     350.2711     0.871     0.652      3.296     83.69842  21.6890        523
 3.50   0.2004    850.0403   1301.9939  45.83     454.1944     1.004     0.883      2.583     83.80274  21.4069        524
 7.13   0.2451    848.1126   1458.1876 -43.05     371.2624     0.849     0.666      3.079     83.79326  21.6258        525
 5.18   0.0468    845.5048    359.5244  -0.70     1944.276     2.426     1.515      7.890     83.72688  19.8281        526
 6.29   0.1158    846.6936   1562.2535 -77.42     785.6234     0.965     0.884      4.486     83.74586  20.8120        527
 3.50   0.0147    842.4457   1104.7205  22.02     6173.318     1.928     1.580      4.454     83.74586  18.5737        528
 3.50   0.0327    843.9308   1062.4220 -72.44     2786.262     1.334     1.261      3.135     83.81222  19.4374        529
 4.05   0.0643    875.3674    540.0737 -52.86     1414.381     1.227     1.153      3.136     83.76482  20.1736        530
 6.62   0.1100    907.8693    258.7793  43.48     827.6787     1.247     1.032      6.370     83.82169  20.7553        531
 7.13   0.3695    841.5234   1496.4910 -43.72     246.1113     0.505     0.494      2.568     83.72688  22.0722        532
 5.96   0.2304    839.9102    545.6884 -21.13     394.4561     0.925     0.682      3.281     83.69842  21.5600        533
 6.61   0.1060    837.7458    898.4065 -41.81     859.0512     1.443     0.945      6.496     83.85959  20.7150        534
 4.46   0.0801    836.9169    990.4441  -0.68     1135.384     1.358     1.171      4.460     83.75534  20.4121        535
 3.50   0.0120    835.5178    297.0656 -20.94     7557.183     1.492     1.461      3.384      83.7174  18.3541        536
 3.91   0.0775    835.7867   1519.0629 -39.95     1174.883     1.132     1.070      2.602     83.80274  20.3750        537
 3.62   0.6690    837.2098    493.1679  48.67     136.0158     0.753     0.560      2.109     83.78378  22.7160        538
 3.50   0.0487    834.6255    817.6043 -27.98     1869.472     1.274     1.173      3.179     83.78378  19.8707        539
 3.52   0.0065    868.4489   1102.0282 -55.94     14025.06     2.166     1.934      4.904     83.82169  17.6827        540
 8.45   0.0679    831.7668   1229.2473 -16.35     1340.913     1.246     0.951      7.474     83.80274  20.2315        541
 6.25   0.8718    830.9784   1057.5098 -87.04     104.3478     0.777     0.499      3.361     83.76482  23.0038        542
 5.26   0.1463    830.7745    403.0079  89.03     622.0526     0.885     0.754      3.137     83.79326  21.0654        543
 3.50   0.0027    822.0415    652.7610  75.58     33984.82     1.749     1.736      3.656     83.81222  16.7218        544
 7.47   0.1353    826.0176    666.4923  87.98     672.3582     0.789     0.499      3.463     83.78378  20.9810        545
 5.71   0.2643    825.9630    597.2975 -84.25     343.9371     0.742     0.655      2.697     83.70791  21.7088        546
 7.73   0.3638    873.6851   1406.3474  43.56     249.9409     0.575     0.334      3.063     83.73637  22.0554        547
 5.25   0.1807    823.8605    673.1242  46.29     503.3861     0.816     0.675      3.504     83.75534  21.2952        548
 4.59   0.1449    821.1354    329.1494 -67.85     627.8957     1.076     0.888      2.941     83.76482  21.0553        549
 3.50   0.0988    818.8610   1397.0851 -45.41     919.9998     1.144     1.064      2.585     83.73637  20.6405        550
 6.17   0.1556    818.6708   1574.1233  71.52     584.4357     0.919     0.676      3.727     83.72688  21.1332        551
 4.05   0.1456    817.9814    777.7371 -59.02     625.0776     1.338     0.883      3.015     83.80274  21.0602        552
 3.82   0.0825    817.9122    701.1309 -38.57     1101.413     1.141     1.079      3.109     83.70791  20.4451        553
 6.34   0.4577    818.0352    745.4899 -89.14     198.7216     0.783     0.500      2.591     83.74586  22.3044        554
 3.50   0.1332    816.1765    431.9580 -26.58     683.1452     1.209     1.028      2.532     83.81222  20.9637        555
 7.19   0.2381    816.5349    598.5266 -41.35     381.8776     0.501     0.497      2.926      83.7174  21.5952        556
 7.36   0.1333    814.4968   1579.9858   1.80     682.7161     0.791     0.500      3.869      83.7743  20.9644        557
 3.55   0.0698    808.9918   1543.1647  57.22     1304.113     1.142     1.042      2.511     83.80274  20.2617        558
 6.93   0.1559    809.9639    649.7502 -88.06     583.8116     0.674     0.433      3.202     83.80274  21.1343        559
 3.97   0.1538    808.6161    842.6494 -50.12     591.8572     1.036     0.909      2.992     83.81222  21.1195        560
 3.50   0.0029    802.1586   1377.2738 -65.88      31110.3     1.792     1.701      3.646     83.76482  16.8177        561
 3.50   0.0504    814.7897    876.9742  75.05     1804.887     1.754     1.630      4.444      83.7743  19.9089        562
 3.50   0.0010    797.5841    694.0739 -88.04     89874.16     2.554     1.819      4.834     83.84064  15.6659        563
 3.50   0.0062    799.6685     39.3059 -28.12     14579.66     1.829     1.549      3.672     83.73637  17.6406        564
 7.34   0.1160    800.7267   1595.2334 -83.24     746.9869     0.879     0.737      5.275      79.7825  20.8667        565
 5.62   0.1148    797.8363    177.1652  81.27      793.238     1.224     0.848      3.295     83.84064  20.8015        566
 6.04   0.2468    797.8347   1484.1553 -45.96     368.8781     0.755     0.566      3.862     83.82169  21.6328        567
 4.63   0.0642    793.4496    294.0367 -70.70     1417.132     1.476     1.243      4.881     83.79326  20.1715        568
 8.66   0.2954    794.6730   1123.6925 -46.01     307.9133     0.563     0.340      3.319     83.74586  21.8289        569
 3.50   0.1798    788.5343    407.2975  68.90     505.8607     0.981     0.947      2.785     83.74586  21.2899        570
 5.08   0.1767    785.3484   1347.4921  39.89     514.6895     0.955     0.834      3.523     83.73637  21.2711        571
 3.50   0.0068    773.2396   1425.9700 -88.70     13292.43     3.910     2.319      8.045     83.81222  17.7410        572
 7.77   0.2115    781.0482    472.5162 -88.57     429.9272     0.784     0.500      3.203     83.74586  21.4665        573
 5.72   0.1682    780.2502   1265.4381  -2.99     540.9827     0.940     0.703      3.493     83.79326  21.2170        574
 7.27   0.4675    778.0057   1366.4883 -86.73     194.5676     0.775     0.499      3.584     83.76482  22.3273        575
 7.28   0.1434    777.1037    475.3150 -22.42     633.9495     0.936     0.673      5.020     83.68893  21.0449        576
 3.59   0.0129    765.5607    390.1766 -44.99     7041.435     1.519     1.510      3.609     83.80274  18.4308        577
 3.85   0.0447    767.0174    138.3184 -58.55     2036.347     1.581     1.437      4.085     83.80274  19.7779        578
 4.90   0.0916    766.4590    928.8651  83.88     993.0203     1.312     1.178      3.764     83.75534  20.5576        579
 5.91   0.1798    768.4127    349.2164  18.78     506.0977     0.727     0.457      2.625     83.78378  21.2894        580
 7.65   0.0907    764.5472    368.3994  45.67      1004.42     1.559     0.724      7.260     83.84064  20.5452        581
 5.61   0.2929    763.8049   1010.7866  46.63       310.52     0.769     0.561      2.664     83.73637  21.8198        582
 3.50   0.1330    763.3813    565.9352  -2.44     684.0455     1.143     0.958      2.800     83.80274  20.9623        583
 7.84   0.3071    763.9860    292.7381 -89.17     296.2803     0.668     0.440      3.559     83.78378  21.8707        584
 6.29   0.2211    762.4064   1570.6052  -0.13     411.5055     0.920     0.661      4.089     83.76482  21.5141        585
 3.94   0.0635    756.5654   1339.7952 -45.47     1433.421     2.198     1.112      4.707     83.79326  20.1591        586
 8.61   0.3022    759.3100    668.3517 -43.15      300.907     0.575     0.334      3.145     83.72688  21.8539        587
 6.01   1.5418    760.0000     26.9862   0.00     59.00026     0.841     0.289      2.012     83.76482  23.6229        588
 4.27   0.3515    758.4163    540.7729 -18.74       258.89     0.717     0.460      1.945     83.79326  22.0172        589
 5.91   0.1384    757.2058    104.3230 -63.55      657.688     1.181     0.877      4.484     83.80274  21.0049        590
 4.39   0.0352    753.7415    194.2228  73.63     2588.419     2.086     1.882      6.299     83.81222  19.5174        591
 8.21   0.2084    753.7567    163.3931 -72.61     436.8183     0.742     0.456      3.740     83.81222  21.4492        592
 4.89   0.1132    751.6927   1078.6486 -58.85     802.9911     1.115     0.897      3.508      83.7174  20.7882        593
 6.07   0.0832    751.9321    431.6724 -86.68     1093.203     1.184     0.958      5.372      83.7174  20.4532        594
 7.54   0.2808    750.2305   1142.0118  -0.50     324.1313     0.700     0.421     -3.605     83.81222  21.7732        595
 7.48   0.2208    749.9789     46.0000  90.00     411.9695     0.845     0.289      2.686     83.76482  21.5128        596
 7.00   0.0764    746.9688    444.2968  39.27      1190.28     1.633     1.014      7.670      83.7174  20.3609        597
 5.79   0.4298    746.5140   1108.9441   0.86     211.5919     0.786     0.500      2.272     83.73637  22.2363        598
 6.64   0.0441    743.6657    839.2238  15.78     2065.075     1.718     1.633      8.869     83.80274  19.7627        599
 6.36   0.1373    744.9623    833.1743 -68.58     662.6429     1.207     0.814      5.776     83.79326  20.9968        600
 3.50   0.0000    723.1760    403.1595 -39.64      1951249     2.747     2.443      4.136     83.80274  12.3242        601
 8.68   0.1671    743.6737     43.6676 -44.73     544.2006     0.574     0.335      3.443      83.7174  21.2106        602
 7.22   0.0797    740.1786    370.5160  56.24     1141.469     1.140     0.951      6.842     83.78378  20.4063        603
 3.83   0.2209    740.1779    917.8958  41.12     411.8339     0.838     0.662      2.363     83.76482  21.5132        604
 6.80   0.1978    740.1210    120.8800  42.33     459.8239     0.847     0.661      3.534     83.73637  21.3935        605
 4.74   0.1483    738.4702   1271.4121  45.45     613.8208     1.119     0.836      3.021     83.84064  21.0799        606
 3.61   0.0294    737.1213   1156.6825 -44.41     3098.237     1.365     1.277      3.082     83.73637  19.3222        607
 3.68   0.0280    735.1292    648.1887  42.16     3253.481     1.391     1.315      3.305     83.83117  19.2691        608
 8.05   1.6924    732.6804     95.6733 -44.66      53.7343     0.568     0.338      2.616     83.73637  23.7244        609
 6.62   0.0798    729.0966    751.6630  76.28     1139.787     1.488     0.977      5.901     83.73637  20.4079        610
 3.50   0.0159    726.5187   1176.7460 -29.31     5717.752     1.459     1.405      3.363     83.72688  18.6569        611
 4.16   0.1803    727.9194   1542.3876 -15.40      504.685     0.990     0.735      2.768     83.80274  21.2924        612
 3.50   0.0003    725.6479    846.8032  -5.97     347567.3     2.131     2.085      3.888     83.83117  14.1974        613
 3.77   0.0403    720.4852   1393.5398  14.42     2256.987     1.620     1.247      3.719     83.73637  19.6662        614
 3.54   0.2285    721.3453    260.6553 -42.57     398.1532     0.998     0.873      2.864      83.7743  21.5499        615
 7.98   0.1653    719.7972   1000.4150 -70.14     550.3793     0.761     0.446      3.755     83.76482  21.1983        616
 5.93   0.1334    745.4609    364.1541 -47.14      682.038     1.012     0.717      4.168      83.7743  20.9655        617
 3.50   0.0127    714.8780    806.8518  27.22     7180.414     1.489     1.456      3.478     83.73637  18.4096        618
 3.50   0.0116    741.8383    554.6828 -39.28      7816.51     1.576     1.489      3.584      83.7743  18.3175        619
 3.50   0.0126    708.0369   1162.3661  81.80     7236.536     1.461     1.441      3.358     83.82169  18.4012        620
 5.46   0.1221    709.4844    193.5308  42.20     744.4362     1.484     0.888      4.142     83.72688  20.8704        621
 3.80   0.0105    703.1603   1337.6311 -78.22     8673.389     2.434     1.954      6.057     83.82169  18.2045        622
 5.44   0.0740    706.8645    537.0085  10.44     1231.137     1.123     1.113      5.019     83.84064  20.3242        623
 3.50   0.0070    701.9468    950.9861 -44.71     13077.69     1.688     1.595      3.716     83.82169  17.7587        624
 6.64   0.2069    704.9594    610.5181 -87.43     439.8054     0.789     0.499      3.754      83.7743  21.4418        625
 8.19   0.1136    704.9415    603.2988 -87.54     800.3406     0.747     0.682      4.482     83.70791  20.7918        626
 4.96   0.2023    702.1547    632.2872 -60.54     449.6341     0.849     0.595      2.831     83.74586  21.4179        627
 3.71   0.2494    700.5091    649.6779  64.06      364.625     0.910     0.818      2.409     83.72688  21.6454        628
 4.33   0.0268    698.0079    581.0513   7.20     3393.683     2.453     1.406      5.537     83.83117  19.2233        629
 7.87   0.1040    697.5863    484.5056 -67.60     874.4079     1.136     0.702      6.059     83.76482  20.6957        630
 6.04   0.1759    695.9753   1198.8938  29.17     517.2048     0.962     0.728      4.381     83.75534  21.2658        631
 4.13   0.1849    695.5074    275.3396 -46.94     491.7469     0.984     0.850      3.244     83.73637  21.3206        632
 3.81   0.0253    690.8043   1212.2382  28.03      3599.71     1.750     1.452      4.447     83.78378  19.1593        633
 4.02   0.0331    685.6290   1212.3180 -27.28      2745.43     1.488     1.232      3.723     83.78378  19.4535        634
 3.50   0.0516    691.0005    314.4893  82.41     1761.589     1.445     1.329      3.539     83.76482  19.9352        635
 5.61   0.0089    682.1150    470.8224 -63.69     10267.19     4.267     4.075     18.543     83.78378  18.0214        636
 6.10   0.1688    688.5663    666.8992  63.34     538.5641     1.116     0.571      3.382     83.69842  21.2219        637
 6.65   0.1887    688.9680    367.7498 -88.30     482.4277     0.677     0.433      2.567     83.81222  21.3414        638
 3.50   0.0084    684.5452    642.6832  84.22     10803.56     1.778     1.620      3.922      83.7174  17.9661        639
 3.50   0.0568    686.5310    129.1955 -68.25     1603.215     1.221     1.193      2.845     83.82169  20.0375        640
 5.35   0.2074    686.4261   1043.6195  33.78     438.6098     0.997     0.677      3.092     83.78378  21.4448        641
 4.51   0.0090    680.1978    541.8158 -73.28     10141.01     3.023     2.168      8.320     83.75534  18.0348        642
 6.19   0.0669    684.2236    399.4459 -75.68     1360.462     1.372     1.331      7.309     83.81222  20.2158        643
 6.15   0.2055    683.1295   1564.1471 -47.38     442.5818     0.824     0.676      3.493     83.74586  21.4350        644
 6.09   0.1186    681.9587    388.5227 -56.06     767.2779     1.161     0.749      4.338     83.76482  20.8376        645
 5.89   0.2005    676.2930    199.6582 -13.03     453.4845     0.983     0.843      4.747     83.72688  21.4086        646
 5.18   0.1572    675.0676   1162.9658 -15.21     578.7593     1.040     0.827      3.769     83.79326  21.1438        647
 5.64   0.3429    672.8073    424.1615 -46.19     265.3726     0.753     0.563      2.674     83.79326  21.9904        648
 4.90   0.0788    671.9019    229.7000  15.68     1154.239     1.291     1.121      4.154     83.69842  20.3943        649
 7.57   0.4069    672.3091    118.6594  43.50     223.4675     0.570     0.337      2.841     83.73637  22.1770        650
 5.31   0.0367    668.1707   1219.8903 -74.91     2478.231     1.632     1.550      6.336     83.75534  19.5646        651
 7.27   0.0896    668.7492    526.2476  47.51     1015.953     1.168     1.029      7.007     83.81222  20.5328        652
 3.95   0.0908    665.7874   1178.6869 -36.86     1002.741     1.091     1.053      2.966     83.79326  20.5470        653
 4.48   0.1819    665.4362   1068.4202  47.64     500.3728     1.001     0.853      3.298     83.81222  21.3018        654
 7.99   0.1896    665.6771    990.3316  44.60      479.404     0.572     0.336      3.171     83.70791  21.3482        655
 7.19   0.2089    665.4438    413.6940   9.14     435.1434     1.013     0.476      3.731     83.70791  21.4534        656
 5.30   0.3242    661.9373     80.7691   1.97      280.627     0.934     0.741      2.929     83.78378  21.9297        657
 3.50   0.0003    647.4385   1462.9248 -65.24     342142.2     2.071     1.993      3.803      83.7743  14.2145        658
 5.26   0.0922   1503.3763   1310.4441  -9.38     986.8211     1.274     0.980      4.827     83.81222  20.5644        659
 3.84   0.0269    653.7503    869.2192  83.14     3385.253     1.376     1.339      3.559     83.79326  19.2260        660
 7.29   0.2246    655.7977    654.6185  71.74     404.9959     0.757     0.446      3.168     83.76482  21.5314        661
 6.21   0.0829    649.6399   1159.4390 -11.95     1097.922     1.493     0.945      6.477     83.81222  20.4486        662
 7.20   0.1109    646.2773   1153.1174  -2.85     820.1541     1.112     0.864      5.806     83.73637  20.7653        663
 4.28   0.0474    644.7308    651.3647 -37.30     1920.574     1.287     1.267      4.028     83.79326  19.8414        664
 3.50   0.0017    638.8285    535.1636  36.97     53652.14     1.904     1.839      3.770     83.79326  16.2260        665
 8.18   0.1175    641.7880   1305.8011  44.68     774.4555     0.763     0.564      4.578      83.7743  20.8275        666
 3.50   0.0661    640.2966    274.9314 -31.12     1376.459     1.427     1.140      3.262     83.74586  20.2031        667
 7.59   0.0772    637.2565    551.7100  87.43     1178.321     1.514     0.901      7.867     83.73637  20.3718        668
 6.18   0.1240    638.3812    390.6563 -43.96     733.9799     1.033     0.874      4.443     83.79326  20.8858        669
 8.31   0.1288    636.3994    646.2070  18.43      706.038     0.739     0.454      4.434     83.74586  20.9279        670
 3.50   0.0265    629.7348    804.6411  50.79     3432.867     1.353     1.324      3.028     83.78378  19.2109        671
 3.88   0.1525    630.4073    854.0191 -14.46     596.2976     1.195     0.936      3.567     83.74586  21.1113        672
 7.17   0.4884    631.4944     67.4591 -48.00      186.208     0.507     0.491      2.413     83.73637  22.3750        673
 7.77   0.3475    630.3377    255.6992  46.88     261.6592     0.565     0.339      2.364     83.73637  22.0057        674
 3.50   0.1882    628.3184    940.7408 -71.28     483.1989     0.947     0.834      2.548     83.74586  21.3397        675
 8.53   0.2390    629.7096    649.3574  41.76     380.4982     0.568     0.337      3.189     83.74586  21.5991        676
 7.08   0.1816    627.1211   1122.8698  45.90     500.7284     0.853     0.682      4.172      83.7174  21.3010        677
 4.33   0.2476    625.8840    131.8179 -48.97     367.4701     0.823     0.662      2.954     83.79326  21.6369        678
 3.50   0.0157    622.6758   1580.3481  46.85     5789.388     1.435     1.417      3.300     83.72688  18.6434        679
 7.25   0.1468    625.4108   1286.2435  19.05     619.7541     0.733     0.455      4.006     83.79326  21.0695        680
 5.83   0.1228    623.7851    342.8228  -5.68     740.5671     1.461     0.945      4.537     83.76482  20.8761        681
 6.60   0.2130    622.8485   1077.8372  45.92     427.2679     0.748     0.573      3.614     83.81222  21.4732        682
 4.63   0.5789    621.5059   1055.5011  44.80     157.0033     0.502     0.498      2.049     83.68893  22.5602        683
 4.67   0.0314    617.2881   1150.4926 -12.46     2898.437     2.362     1.579      6.352      83.7174  19.3946        684
 6.22   0.0935    618.4885     93.1211 -24.60     972.6114     1.294     0.927      4.983     83.72688  20.5802        685
 4.05   0.1407    615.0881   1233.5200  74.74     646.2169     1.151     0.944      2.847     83.72688  21.0241        686
 3.50   0.2610    615.5864    117.1061 -73.68     348.5659     0.994     0.741      2.446     83.76482  21.6943        687
 8.63   0.0889    614.8093    530.1701 -46.57     1023.464     0.771     0.569      4.627     83.80274  20.5248        688
 5.50   0.0741    612.7856   1366.5790  42.32     1228.136     1.397     1.267      5.535     83.76482  20.3269        689
 6.20   0.1679    614.1479    288.1101 -44.11     541.7427     0.828     0.669      3.211     83.75534  21.2155        690
 4.47   0.1391    610.7028    994.0850  16.87     653.5837     1.180     1.032      3.600     83.68893  21.0117        691
 8.03   0.0593    608.1297   1334.3069 -73.57     1532.772     1.737     1.107     10.251     83.72688  20.0863        692
 5.67   0.4005    610.1726    961.7830  47.33      227.237     0.787     0.669      3.200     83.79326  22.1588        693
 3.95   0.0728    608.5198    943.9429  57.36     1248.724     1.223     1.089      3.053     83.75534  20.3088        694
 4.50   0.3200   1496.0413   1123.2916  87.22     284.0446     0.731     0.665      2.293     83.70791  21.9165        695
 3.50   0.0150    604.5872    584.8547 -69.49      6056.05     1.505     1.440      3.429     83.82169  18.5945        696
 5.15   0.2144   1556.2631    736.6564 -11.06     424.2389     0.879     0.737      3.000     83.74586  21.4810        697
 7.10   0.0876    603.4007    511.8732 -31.13     1039.098     1.305     0.924      7.602     83.84064  20.5084        698
 6.74   0.1062    601.5868    763.3082  64.33     856.2451     0.921     0.816      5.154     83.76482  20.7185        699
 6.37   0.0989    600.0132   1424.8447  63.01     920.2845     1.215     1.120      6.743     83.79326  20.6402        700
 5.70   0.1393    598.4013    666.6710 -64.77     653.6319     1.166     0.945      4.590     83.82169  21.0117        701
 7.09   0.4216    597.4948    356.0611  -1.76     215.7062     0.795     0.500      4.136     83.74586  22.2153        702
 6.04   0.1586    595.8260   1124.0168 -87.63      573.626     0.916     0.758      3.482     83.79326  21.1534        703
 4.94   0.0878   1590.3219    565.2692  12.12     1035.422     1.092     1.010      4.246     83.72688  20.5122        704
 8.05   0.0827    591.9699   1355.7440  58.04     1100.077     0.930     0.831      5.579     83.81222  20.4464        705
 3.78   0.0438    892.9714   1424.8131 -15.64     2078.624     1.358     1.281      3.508     83.80274  19.7556        706
 4.01   0.0382   1549.9255   1220.6448 -26.79     2378.805     1.351     1.215      3.554     83.74586  19.6091        707
 8.41   0.2381   1585.4021   1081.1864  19.34     382.0988     0.746     0.449      3.020     83.76482  21.5946        708
 3.50   0.3185    898.5993    378.3526 -44.08      285.856     0.989     0.830      2.323     83.84064  21.9096        709
 3.50   0.0500   1535.1337   1427.4486 -49.78     1821.148     2.325     1.153      4.487     83.76482  19.8991        710
 5.30   0.0568   1584.9180   1068.0917 -36.80     1601.152     1.155     1.083      4.299     83.75534  20.0389        711
 5.76   0.1306   1585.3984    639.8409  34.31      696.647     1.001     0.908      4.134     83.80274  20.9425        712
 4.63   0.3627   1588.2570   1334.4186  70.43     250.8811     0.715     0.458      2.071     83.79326  22.0513        713
 3.50   0.0131   1583.9224   1107.3608  85.15     6923.193     1.493     1.454      3.419     83.76482  18.4492        714
 6.05   0.2110   1534.5165   1151.1301 -54.19     430.8397     0.909     0.671      3.144      83.7174  21.4642        715
 5.25   0.1713    606.5264   1009.5512 -58.06     530.8759     0.881     0.871      3.678     83.73637  21.2375        716
 4.63   0.0672    896.2236    985.9687 -74.46     1353.553     1.422     1.147      3.581      83.7743  20.2213        717
 7.42   0.0866    894.2227   1570.2350  62.61     1051.027     1.045     0.889      6.272     83.78378  20.4960        718
 7.95   6.2512   1581.5309   1471.4690 -45.01     14.54555     0.509     0.488      2.810     83.72688  25.1432        719
 3.50   0.0949   1574.2419   1489.8348  51.42     959.2696     1.093     1.041      2.416     83.82169  20.5951        720
 9.40   0.2111   1582.6683    771.3503  44.27      430.946     0.584     0.329      3.503     83.75534  21.4639        721
 4.65   0.1783   1570.3956   1337.0565  70.83     510.7553     0.978     0.736      2.704     83.85011  21.2795        722
 3.50   0.0002    879.3813   1591.1503 -63.64     582964.5     2.191     2.053      3.862     83.79326  13.6359        723
 7.15   0.8549    898.3307    972.6839  45.71     106.3663     0.569     0.338      2.465     83.72688  22.9830        724
 5.12   0.7762   1552.8965   1370.1503  49.63     117.0795     0.808     0.673      2.481     83.67944  22.8788        725
 3.57   0.0335   1531.6038    414.0146  13.26     2712.092     1.865     1.611      4.740     83.75534  19.4667        726
 6.50   0.1185   1553.0144   1231.5068   0.45     767.7388     1.022     0.780      4.658     83.76482  20.8370        727
 3.50   0.0698   1580.4269   1412.8467  53.08     1303.748     1.495     1.203      3.233     83.82169  20.2620        728
 3.50   0.0003   1562.5905    302.4526 -45.16     302892.1     2.030     1.976      3.795     83.83117  14.3468        729
 5.39   0.3182   1563.1949   1056.6471  22.57     286.1884     0.725     0.638      3.014     83.84064  21.9084        730
 5.78   0.2424    897.4784    727.9808  88.32     375.5722     0.806     0.694      3.020     83.81222  21.6133        731
 4.47   0.1098   1534.6099    918.2558 -51.05     829.5197     0.951     0.919      3.024     83.83117  20.7529        732
 3.50   0.0169   1560.2660    859.8150  82.75     5378.213     1.435     1.389      3.283     83.82169  18.7234        733
 3.50   0.0082   1565.5377     20.2199  79.18     11117.19     1.596     1.567      3.577     83.80274  17.9350        734
 3.50   0.1578   1537.6013    261.7689 -29.93      576.413     1.070     0.936      2.787     83.76482  21.1482        735
 3.50   0.0003   1557.0262    485.9517 -46.95     300399.1     2.037     1.979      3.782     83.83117  14.3558        736
 3.50   0.0010   1551.5463    680.5699 -24.21     91464.54     5.083     4.253     11.055     83.81222  15.6469        737
 3.54   0.1321   1561.8950   1564.7633  89.78     687.9832     1.147     1.037      3.131     83.70791  20.9561        738
 4.66   0.1021   1537.8602    504.2532 -86.64     890.6182     1.410     1.249      4.233     83.75534  20.6758        739
 3.51   0.0121   1564.7686    782.9649 -73.89     7537.213     2.284     1.696      5.029     83.79326  18.3570        740
 3.50   0.0106   1569.3835     90.9229 -37.37     8595.023     1.574     1.468      3.453     83.81222  18.2144        741
 3.57   0.1869   1550.4473    350.6759  67.28     486.6026     0.939     0.820      2.605     83.74586  21.3321        742
 5.23   0.1935   1551.0425    131.5157  28.07      470.165     1.014     0.663      3.206     83.76482  21.3694        743
 4.07   0.0678   1561.5024    384.5472 -84.62     1341.062     2.088     1.130      5.784     83.69842  20.2314        744
 6.59   0.0675   1533.5042    973.8771 -48.31     1346.092     1.676     1.109      7.935      83.7174  20.2273        745
 4.93   0.9214   1540.1309    328.2009 -45.18     98.79777     0.803     0.678      2.433     83.82169  23.0631        746
 3.50   0.2441   1551.0103   1512.1785   1.02     372.6725     0.887     0.751      2.322     83.76482  21.6217        747
 3.68   0.0609   1445.3170    729.8317 -74.10     1495.133     1.171     1.106      2.807      83.7743  20.1133        748
 7.56   0.1917   1551.6907    780.9668 -27.82     474.4436     0.905     0.212      2.488     83.75534  21.3595        749
 3.73   0.0171   1545.0369    861.9048  43.95     5308.778     1.941     1.698      4.716     83.70791  18.7375        750
 5.41   0.0667   1527.4613    731.5827  51.89     1363.727     1.479     1.129      4.936      83.7743  20.2132        751
 3.67   0.0361   1514.5349   1545.8276  74.42       2520.1     1.792     1.351      4.159     83.78378  19.5465        752
 3.50   0.0070   1541.5630    652.9582  87.86     12953.96     1.652     1.610      3.637     83.83117  17.7690        753
 3.50   0.0051   1540.7096    133.3076 -13.89      17912.4     1.604     1.591      3.487     83.70791  17.4171        754
 6.37   0.2001   1535.2697   1059.9784 -12.23     454.8622     0.716     0.693      2.999     83.82169  21.4053        755
 5.66   0.3361   1528.0956    548.5684 -26.74     270.4969     1.123     0.571      3.047     83.72688  21.9696        756
 7.70   3.8728   1529.3197    894.3311 -44.46     23.48107     0.570     0.337      2.227     83.73637  24.6232        757
 5.31   0.0723   1521.6635     12.5558  12.99     1258.886     1.218     1.101      4.784     83.78378  20.3000        758
 4.67   0.0460   1518.9526   1099.4435 -74.47     1980.135     1.794     1.405      5.436     83.80274  19.8083        759
 4.71   0.3437    899.0773    449.6739 -77.58     264.6418     0.724     0.652      2.099     83.74586  21.9934        760
 3.70   0.0359    911.2904    999.7241  36.21     2533.059     1.334     1.228      3.098     83.72688  19.5409        761
 3.66   0.0645   1518.1007     83.3555  12.43     1408.247     1.538     1.382      3.896     83.69842  20.1783        762
 3.50   0.0006   1506.1277    267.6140 -51.55     164099.3     1.922     1.907      3.741     83.85011  15.0122        763
 3.80   0.0780   1522.7395    377.1094  66.14     1166.328     1.847     1.136      3.988     83.74586  20.3829        764
 3.75   0.0406   1513.5560    481.9802 -17.17     2244.343     1.254     1.196      3.040     83.80274  19.6723        765
 4.71   0.1537   1526.1038    877.5256 -48.92     591.6371     1.022     0.926      3.406     83.73637  21.1199        766
 4.38   0.0926    913.5267   1117.9211  75.00     981.7567     1.400     1.193      4.202     83.74586  20.5700        767
 5.20   0.1458   1501.4576   1412.1002  85.26     623.3358     1.231     0.826      3.217     83.67944  21.0632        768
 7.24   0.3008   1524.4738   1214.5239  44.72     302.2772     0.505     0.493      2.497     83.73637  21.8490        769
 6.27   0.2226   1508.4960   1207.4696 -54.85      408.572     0.501     0.498      1.981     83.74586  21.5218        770
 5.54   0.0820   1502.9536   1095.0156 -33.17     1109.284     1.142     1.118      4.425     83.79326  20.4374        771
 5.18   0.3104    903.1583   1257.1417  45.73     293.0569     0.757     0.569      2.543      83.7743  21.8826        772
 3.50   0.0023   1513.8727    390.9581   6.67     40338.26     1.740     1.705      3.589     83.76482  16.5357        773
 5.88   0.1873   1511.0653      3.5024   2.71     420.2289     0.809     0.691      3.674     72.45756  21.4913        774
 5.33   0.1166    902.6474    120.3405 -49.71     780.1292     0.985     0.844      3.771      83.7743  20.8196        775
 5.38   0.1372    903.2188    733.5338   9.87     663.2536     0.956     0.912      4.212     83.79326  20.9958        776
 7.96   0.1948   1491.4911   1094.4879 -45.23     466.7351     0.504     0.496      3.023     83.70791  21.3773        777
 4.00   0.0120    895.2104    537.0101   8.34      7592.08     2.372     1.976      5.766     83.74586  18.3491        778
 5.21   0.1668   1500.4423    678.8016  86.18     545.7158     0.987     0.721      2.890     83.81222  21.2076        779
 3.61   0.0377    903.5105   1313.7792  87.60     2410.426     1.782     1.332      4.150     83.76482  19.5948        780
 3.50   0.0027    899.4466    301.0835  83.14     33147.79     1.728     1.724      3.613     83.75534  16.7489        781
 4.96   0.2100   1496.9391   1231.3479 -12.82     433.1117     0.957     0.752      3.349     83.75534  21.4585        782
 5.26   0.1845    924.5437    309.0309 -61.24     493.3174     1.001     0.657      2.894     83.81222  21.3172        783
 3.50   0.0221   1503.1013    721.7957  86.03     4123.764     1.452     1.342      3.319     83.76482  19.0118        784
 3.50   0.0051   1434.2688    223.0007 -48.09      18002.9     1.624     1.577      3.462     83.82169  17.4116        785
 7.34   0.1179   1497.6967    255.7074  44.82     770.6719     1.166     0.566      4.544     83.69842  20.8328        786
 4.52   0.1767   1495.4760    928.6413 -51.52     514.7288     1.113     0.767      4.083     83.76482  21.2711        787
 5.13   0.0529    921.1234   1197.8351 -64.29     1720.462     2.528     1.250      7.070     83.76482  19.9609        788
 6.22   0.2422   1493.3517    870.5338  30.87     375.5278     0.959     0.837      4.081     83.76482  21.6134        789
 3.50   0.0687   1497.6676    842.9128 -81.48     1323.293     1.147     1.128      2.852      83.7174  20.2459        790
 3.50   0.0319   1481.3477    573.7131 -42.49     2853.388     2.404     1.552      4.811     83.72688  19.4116        791
 5.33   0.0488    915.8659    251.4963  59.12     1864.308     2.129     1.187      6.872     83.75534  19.8737        792
 6.97   0.2531    908.0131     87.5300 -89.82     359.7708     0.813     0.499      3.216     83.84064  21.6599        793
 4.75   0.1881   1496.7322    671.9519  85.85     483.6933     0.874     0.746      3.302     83.76482  21.3386        794
 4.43   0.0508   1487.1511     76.3216  17.26     1789.141     1.383     1.326      3.399     83.75534  19.9184        795
 5.76   0.1133   1477.4252   1022.4833  49.20     803.1315     1.378     0.816      4.677      83.7743  20.7880        796
 3.50   0.0000    880.5359    182.0380 -39.55      2530983     3.890     3.526      5.939     83.78378  12.0418        797
 5.35   0.1618    914.5897    124.3067 -45.79     562.2443     0.994     0.863      3.724     83.75534  21.1752        798
 4.68   0.0763    907.7704      3.5518 -14.93     1034.327     1.357     1.084      3.836     72.66553  20.5134        799
 3.50   0.0219    911.7537    836.9884  52.13     4160.763     1.388     1.333      3.174     83.79326  19.0021        800
 4.08   0.0921   1475.9598    197.0039  11.29     987.4573     1.333     1.091      3.582     83.78378  20.5637        801
 7.91   0.2351   1482.4895    766.5071  44.88     386.6551     0.507     0.493      3.041      83.7174  21.5817        802
 7.06   0.1923   1465.1213    116.8933  45.40     472.9164     0.843     0.669      4.427     83.72688  21.3630        803
 6.43   0.4268   1470.9758    428.5414 -89.65     213.2906     0.789     0.498      2.448     83.82169  22.2276        804
 4.51   0.2268    923.9541    932.8009  27.69     401.4802     0.950     0.752      2.935     83.83117  21.5408        805
 4.08   0.2074   1419.4254    427.5980 -41.32     438.7182     1.140     0.835      2.882      83.7743  21.4445        806
 4.39   0.1573   1456.9536    610.4015  86.66     578.8542     1.105     0.934      2.789     83.83117  21.1436        807
 3.50   0.0001   1433.4305   1089.0942 -40.48     734726.7     2.292     2.146      3.910     83.74586  13.3847        808
 5.43   0.4153    951.2455   1301.9865 -54.84     219.1006     0.809     0.494      2.472     83.79326  22.1984        809
 6.34   0.1325   1474.8782   1569.2239   3.97     686.5513     1.140     0.873      4.660     83.78378  20.9583        810
 3.50   0.2001    916.4091   1111.4955 -57.10     454.5446     1.053     0.788      2.330     83.75534  21.4061        811
 7.42   0.4105   1464.1953    446.6032 -70.88     221.5713     0.760     0.446      3.464     83.75534  22.1862        812
 4.49   0.0315   1474.1257    996.7769 -15.84     2893.301     2.790     1.382      7.429     83.79326  19.3965        813
 3.50   0.1306    931.3125   1116.4862  89.39     696.1725     1.141     1.001      2.891      83.7174  20.9432        814
 4.85   0.0923   1466.7694   1126.9901  39.83     985.8124     1.277     0.977      3.940     83.81222  20.5655        815
 3.50   0.1546   1452.4904    389.9434  -2.31      588.259     1.051     0.921      2.405     83.73637  21.1261        816
 4.93   0.1138    925.0795    664.7285  57.87     799.0996     1.138     1.002      3.603     83.73637  20.7935        817
 7.82   0.2935   1438.2158    632.9548   1.73     310.0102     0.701     0.411      3.381     83.78378  21.8216        818
 7.33   0.1526   1457.4883   1112.3357  89.98     595.8144     0.914     0.472      3.916     83.74586  21.1122        819
 7.45   0.1589   1461.0214   1381.0143 -45.02      572.437     0.918     0.528      3.809     83.76482  21.1557        820
 5.78   0.1488    918.8272   1343.1749  53.62      611.457     0.900     0.836      4.120     83.79326  21.0841        821
 3.51   0.0157    927.3394   1321.0953 -59.95     5802.248     1.559     1.441      3.631     83.74586  18.6410        822
 4.20   0.1003    924.9520     44.9536 -10.42     907.0483     1.119     1.099      3.217     83.81222  20.6559        823
 8.94   0.5526    927.6917     66.6917 -45.00     164.4836     0.555     0.344      3.332     83.68893  22.5097        824
 4.90   0.4987   1453.9032    921.1022  44.41     182.2984     0.835     0.654      3.294     83.70791  22.3980        825
 3.50   0.0092    938.1570   1065.5884  67.12     9878.362     1.806     1.472      3.559     83.79326  18.0633        826
 6.58   0.1888   1454.9847   1143.2863  86.92     481.9598     0.728     0.664      3.573      83.7743  21.3425        827
 7.09   0.0903   1450.5183   1163.3622 -70.10     1006.854     1.601     0.855      7.337     83.76482  20.5426        828
 6.22   0.2865   1453.9756    660.0073 -46.05     317.6049     0.917     0.526      2.795     83.79326  21.7953        829
 3.78   0.0404   1437.7621   1269.6532 -69.57     2254.094     1.301     1.242      3.533     83.78378  19.6676        830
 5.02   0.5722   1436.8296    995.2936  59.87      158.959     0.859     0.602      3.171     83.75534  22.5468        831
 3.50   0.0012    928.7850   1176.9730 -79.76     77905.97     1.828     1.810      3.673     83.79326  15.8211        832
 6.63   0.2876   1453.6389    165.0556   2.31     316.4201     0.752     0.645      3.907     83.79326  21.7993        833
 5.15   0.2552   1444.9612    176.9987 -89.86     356.5502     0.618     0.602      1.985     83.78378  21.6697        834
 5.38   0.0887   1396.0166   1101.5753  69.32     1025.858     1.000     0.935      4.454     83.76482  20.5223        835
 5.54   0.1253   1450.6127   1223.6907 -83.02     726.3758     1.350     0.910      4.342      83.7743  20.8971        836
 3.50   0.0069   1438.7900    617.5021 -10.61     13259.74     1.554     1.496      3.278     83.74586  17.7437        837
 3.50   1.6345   1436.2102    385.9818 -85.63     55.64878     0.878     0.747      2.217     83.75534  23.6864        838
 3.88   0.0806   1437.7728    645.7034   4.08      1128.26     1.556     1.076      3.913     83.73637  20.4190        839
 6.89   0.1339   1431.2853   1279.1400 -46.23     679.1215     1.443     0.691      7.273     83.73637  20.9701        840
 3.50   0.0825   1435.2380   1345.9729 -43.47     1102.575     1.190     1.126      2.574     83.80274  20.4440        841
 4.42   0.0242    937.1419    514.7639  65.30     3757.854     2.563     1.817      6.749     83.79326  19.1126        842
 3.50   0.0010   1418.3993   1124.8358 -72.14     93536.51     2.094     1.934      3.971     83.75534  15.6225        843
 3.52   0.0106   1414.4308   1385.1621  81.72     8603.214     1.512     1.467      3.315     83.80274  18.2133        844
 7.08   0.2637   1437.4760    178.5230  44.91     344.9082     0.508     0.491      3.046     83.74586  21.7057        845
 7.82   0.1309   1436.0164   1370.9790 -22.64     695.0016     1.262     0.533      5.143      83.7743  20.9450        846
 3.50   0.0393   1431.1683    339.0815  22.54     2314.997     2.001     1.335      4.142      83.7743  19.6386        847
 6.25   0.1372   1417.6298    105.0640 -13.65     662.9937     1.170     0.888      5.118     83.78378  20.9962        848
 7.50   0.1014   1402.1719   1343.8857 -79.30     897.2175     1.175     0.726      5.960     83.78378  20.6678        849
 7.77   0.1593   1382.3380   1466.3071 -46.51     570.8085     0.568     0.338      3.086     83.74586  21.1588        850
 7.23   0.1328    937.1316    218.6918  61.31     684.7589     0.852     0.602      4.945     83.72688  20.9612        851
 7.84   0.2600    945.6110   1164.8018  18.24     349.8211     0.734     0.453      3.174     83.75534  21.6904        852
 7.34   1.0684   1444.4667   1513.5170  38.84     85.09496     0.501     0.497      1.893      83.7174  23.2252        853
 7.05   1.2611   1403.3044    386.6452  42.73     72.09436     0.573     0.335      2.637      83.7174  23.4052        854
 4.48   0.1560    946.8138     42.5385  68.24     583.4295     1.260     0.898      3.837     83.78378  21.1350        855
 7.25   0.2175   1383.4504      6.5013  15.82     406.9058     0.500     0.497      2.906     81.49633  21.5263        856
 5.16  99.0000   1425.3165    767.6627  44.03    -47.25748     0.572     0.336      1.933     83.74586  99.0000        857
 4.27   0.0649    951.0862     59.9075  68.16     1400.439     1.466     1.302      4.552     83.70791  20.1843        858
 4.83   0.1307   1448.3176     86.3835 -61.28     696.0817     1.088     0.925      3.198     83.79326  20.9433        859
 3.50   0.2400   1422.7021   1595.7240  26.48     354.3666     1.125     0.858      2.919     78.32567  21.6764        860
 3.50   0.0922   1410.6628    365.5913 -64.51     987.1246     2.646     0.785      5.271     83.84064  20.5641        861
 3.50   0.0921    940.5485    724.2278  68.31     988.6712     1.384     1.261      3.873     83.81222  20.5624        862
 4.66   0.0640    946.4003    131.8044 -61.85     1420.901     1.237     1.086      4.476      83.7743  20.1686        863
 3.50   0.0244   1410.1222    348.3161  54.07     3731.393     1.941     1.527      4.474     83.73637  19.1203        864
 5.69   0.1897   1401.0663     60.8594   1.03      479.458     0.931     0.752      3.570     83.73637  21.3481        865
 3.55   0.0336   1405.3019    328.1909 -46.18     2704.309     1.293     1.262      2.987     83.74586  19.4699        866
 5.13   0.0628   1391.5999   1532.8623 -65.74     1450.493     1.588     1.244      6.195     83.84064  20.1462        867
 3.50   0.0070   1407.1206    306.5770 -33.56     12960.18     1.560     1.485      3.340     83.78378  17.7685        868
 3.50   0.0444    946.7162    443.5614  -9.61     2050.602     1.375     1.212      3.360      83.7743  19.7703        869
 3.96   0.0196   1399.6926   1029.9628  26.55     4637.751     1.769     1.525      4.368     83.72688  18.8842        870
 3.50   0.0000   1365.6366   1158.5651 -62.65      2980486     2.839     2.659      4.682     83.84064  11.8643        871
 3.69   0.1153   1345.9950    192.7671  29.32     789.1653     1.103     1.074      3.031     83.80274  20.8071        872
 3.50   0.0020   1371.5316   1017.4492 -35.65     45187.79     1.954     1.801      3.898     83.76482  16.4124        873
 7.27   0.1034   1338.0942   1478.8373  -7.55     879.1753     1.115     0.731      5.536      83.7174  20.6898        874
 4.79   0.0743   1402.8650   1361.7777  57.55     1224.938     1.160     1.095      4.578     83.80274  20.3297        875
 4.42   0.0025   1358.5610   1133.8137  78.51      35875.2    10.078     6.974     28.216     83.81222  16.6630        876
 3.50   0.0002   1392.3275    112.7008 -55.63     410380.3     2.093     2.022      3.812     83.70791  14.0170        877
 6.01   0.2627   1386.4847    675.8112 -89.61     346.4157     0.947     0.739      3.626     83.78378  21.7010        878
 3.63   0.2370    954.3857   1027.8672  77.49     384.2137     0.999     0.865      2.665     83.83117  21.5886        879
 4.42   0.1466    949.4932    825.2755 -49.53     620.0784     1.153     1.063      3.335     83.72688  21.0689        880
 4.43   0.0758    948.6334    265.9600  45.46     1200.552     1.081     1.058      3.269     83.81222  20.3515        881
 3.50   0.0024   1387.8743   1427.1118 -66.09     38433.09     1.715     1.699      3.570      83.7174  16.5882        882
 3.50   0.0215    949.6575    652.6721  87.88     4236.611     2.358     1.627      5.114     83.74586  18.9825        883
 3.50   0.0101   1391.2926   1037.2574 -48.57     8986.878     1.538     1.515      3.543     83.72688  18.1660        884
 6.85   0.3793   1388.2128   1020.1625  45.10     239.9717     0.761     0.561      3.314     83.81222  22.0996        885
 3.50   0.0069   1389.3931    711.6712  73.77     13234.92     1.655     1.561      3.604     83.82169  17.7457        886
 5.14   0.1341    952.4099   1502.9034  80.21     678.4977     0.973     0.864      3.278     83.75534  20.9711        887
 4.06   0.0708   1378.0964    317.4749 -20.48     1283.533     1.380     1.187      3.281     83.73637  20.2790        888
 4.89   0.0486   1384.7843   1272.4896  27.51     1874.025     1.737     1.438      5.765     83.79326  19.8681        889
 5.33   0.1980   1381.5190   1208.5082 -71.58     459.4952     0.942     0.423      2.431     83.75534  21.3943        890
 6.35   0.0828   1388.0505   1100.8663  66.26     1098.753     1.191     0.950      5.538     83.75534  20.4478        891
 4.03   0.0453   1387.8608    805.0665   3.84     2008.006     1.251     1.212      2.959     83.74586  19.7931        892
 7.16   0.1498   1381.8851   1047.6293  15.10      607.504     1.066     0.735      4.444     83.78378  21.0911        893
 5.80   0.1559    958.5264    891.5950  -8.00     583.9514     0.900     0.882      4.349     83.82169  21.1341        894
 4.53   0.1182   1387.6259   1583.8268 -18.33     769.6285     1.142     0.921      3.471     83.78378  20.8343        895
 3.97   0.0271   1351.1232    150.2676  81.72     3351.345     2.612     1.805      6.433     83.70791  19.2370        896
 8.88   0.2117   1345.6661   1597.6758 -45.44     368.0078     0.574     0.335      3.272      71.7415  21.6354        897
 7.61   0.1061   1400.7266     89.6284 -17.15     857.6967     0.975     0.576      5.388     83.78378  20.7167        898
 5.60   0.1110   1384.6487   1383.3220 -10.61     819.4577     1.459     0.862      4.535     83.73637  20.7662        899
 6.14   0.1088   1252.5337   1087.0894  82.22     836.2353     1.183     0.719      4.848     83.74586  20.7442        900
 5.30   0.2327   1367.9484   1068.1727  47.52      391.113     0.822     0.659      2.854     83.81222  21.5692        901
 8.17   0.1274   1374.3414   1482.3240 -45.76     713.9284     0.577     0.334      3.460     83.75534  20.9159        902
 8.57   0.2834   1370.6714   1405.6732 -45.08      320.808     0.572     0.336      2.869     83.70791  21.7844        903
 4.94   0.6455   1307.4597    793.0132  -2.62     140.9497     0.777     0.498      1.878     83.78378  22.6773        904
 3.50   0.0060   1306.4805    668.0416 -51.74     15101.81     1.975     1.659      3.950     83.76482  17.6024        905
 4.88   0.2862   1369.9504    705.0200  41.74     318.0099     0.784     0.761      2.664     83.79326  21.7939        906
 3.50   0.0004   1164.2915   1298.2329 -58.32     257140.5     2.016     1.959      3.776     83.74586  14.5246        907
 5.30   0.0750   1369.7080   1213.9191 -58.33     1212.484     1.164     1.026      4.546     83.75534  20.3408        908
 3.50   0.2602   1359.7026   1242.0892 -73.88     349.3542     0.961     0.739      2.411     83.68893  21.6918        909
 3.50   0.6380   1351.9923    965.6971 -86.86     142.5965     0.730     0.674      1.983      83.7743  22.6647        910
 5.92   0.1399    962.9713    422.4237   3.04     650.3627     1.054     0.774      4.287     83.80274  21.0171        911
 3.51   0.0224   1303.7908    891.3155   0.35     4066.107     1.375     1.353      3.112     83.78378  19.0271        912
 5.58   0.1039   1361.8287    525.1572 -86.02     876.3979     1.645     0.839      4.613     83.81222  20.6932        913
 3.50   0.5445    963.4986   1212.4991 -44.99     166.9509     0.502     0.498      1.888     83.69842  22.4935        914
 3.95   0.1012   1367.1953    147.8331  59.05     899.5858     1.154     1.059      3.330     83.80274  20.6649        915
 6.40  99.0000   1305.5096    506.4796 -54.60    -69.39871     0.500     0.499      2.138     83.72688  99.0000        916
 3.70   0.7348   1364.5948    361.1649 -19.78     123.8432     0.730     0.451      2.005     83.79326  22.8178        917
 6.39   0.0864    973.0931    546.8149  37.55     1052.483     1.167     1.036      5.431      83.7743  20.4945        918
 8.49   0.4253    976.3323   1195.6643  44.85     213.7735     0.578     0.333      2.169      83.7174  22.2251        919
 4.15   0.1161   1361.6340    389.4590 -16.71     783.5618     1.496     0.896      3.914     83.79326  20.8148        920
 7.21   0.0853   1301.8860    937.3760 -88.23     1066.925     1.574     0.867      7.335      83.7743  20.4797        921
 4.63   0.1222   1305.6504    572.7710 -17.13     744.5683     1.202     0.922      3.798     83.81222  20.8702        922
 6.52   0.0761   1361.7830   1110.2821  43.99     1195.296     1.270     0.935      6.089     83.80274  20.3563        923
 3.69   0.2273    975.5131     70.4607 -18.62     400.1226     0.916     0.871      2.784     83.73637  21.5445        924
 5.73   0.1968   1342.2946    988.5098 -16.47     461.8446     1.324     0.654      3.790     83.69842  21.3888        925
 3.50   0.0006   1318.9818    658.3548  17.66     155088.6     1.922     1.907      3.785     83.80274  15.0735        926
 4.51   0.1566   1351.7064    473.9774 -72.32     580.7291     0.988     0.743      2.628     83.75534  21.1401        927
 6.46   0.3733   1350.5338   1068.5331 -44.90     243.5513     0.507     0.491      2.552     83.72688  22.0835        928
 3.50   0.0585   1345.2562    603.5752 -60.83     1554.864     1.463     1.291      3.499     83.81222  20.0708        929
 4.32   0.0131    985.7224    452.4939  61.33     6933.398     2.336     2.051      6.796     83.72688  18.4476        930
 5.12   0.0774   1305.3463    842.8408  60.14     1175.693     1.346     1.277      4.768      83.7743  20.3743        931
 5.31   0.1948   1310.9131    269.8641 -37.46     466.8199     0.806     0.677      2.263     83.72688  21.3771        932
 3.50   0.0201   1331.7229    105.6474 -23.69     4527.845     1.466     1.336      3.284     83.75534  18.9103        933
 7.71   0.3110   1313.6914    800.3595  42.83     292.3157     0.577     0.332      2.433      83.7174  21.8854        934
 7.26   0.2463   1310.7714   1119.5833  70.25      369.394     0.748     0.450      4.084     83.79326  21.6313        935
 7.04   0.1194   1330.7285   1185.0146   0.39     762.2909     0.739     0.679      4.432     83.84064  20.8447        936
 4.08   0.0416    964.1526    414.7169 -22.96     2187.059     1.345     1.206      3.188     83.74586  19.7003        937
 3.50   0.0371   1329.3531    385.2936  18.18     2449.827     1.370     1.293      3.263     83.70791  19.5772        938
 7.07   0.5987   1308.0293    295.4808  89.01     151.9579     0.802     0.500      2.903      83.7743  22.5957        939
 4.26   0.0102   1202.2534   1074.0476  39.23     8894.456     2.381     1.908      6.252     83.79326  18.1772        940
 7.46   0.1314   1327.9865   1117.4819  27.72     692.3063     1.026     0.666      5.209     83.79326  20.9493        941
 5.94   0.1128   1179.3655   1402.4209 -43.21     806.6241     1.087     0.939      4.409     83.79326  20.7833        942
 5.37   0.0155   1329.8546   1138.1758 -79.15     5861.326     2.771     1.831      9.590     83.82169  18.6300        943
 6.51   0.1472   1299.1119    845.1188 -41.87     617.8751     0.824     0.665      4.484     83.72688  21.0727        944
 6.15   0.3374   1322.4180    957.7776 -19.80     269.6607     0.734     0.453      2.248     83.78378  21.9730        945
 6.67   0.4204   1306.0127   1306.5032 -88.18     216.3831     0.767     0.500      3.517     83.75534  22.2119        946
 7.47   0.7501   1325.5167    582.4986 -44.05      121.173     0.504     0.496      2.651     83.68893  22.8415        947
 3.50   0.0050   1328.8699    654.2535  15.05     18279.79     1.798     1.651      3.949     83.74586  17.3951        948
 3.50   0.0001   1297.3170    723.3209 -20.12     965863.1     2.734     2.177      3.996     83.73637  13.0877        949
 7.59   0.2975   1325.6760    493.3169  45.36     305.6628     0.566     0.339      2.242     83.72688  21.8369        950
 5.70   0.1259   1317.3490    995.2737 -49.23     722.3787     0.556     0.341      1.781     83.72688  20.9031        951
 8.37   0.3671   1324.3121    755.6535  43.45     247.6482     0.573     0.335      2.558      83.7174  22.0654        952
 5.69   0.0785   1324.2559    631.8288  11.81     1160.018     1.992     0.873      5.900     83.81222  20.3888        953
 5.58   0.2208   1316.0146   1355.5168   2.72     412.2033     0.814     0.696      2.915     83.80274  21.5122        954
 7.14   0.2533   1323.5435   1533.4946 -17.86     358.9479     0.500     0.498      3.001     83.72688  21.6624        955
 3.52   0.0284   1318.3228    262.3828 -32.59     3202.734     1.362     1.299      3.128     83.81222  19.2862        956
 8.48   0.1202   1309.3507    976.3036 -47.19     755.8392     0.571     0.336      3.138     83.67944  20.8539        957
 6.49   0.1323   1314.3674   1132.9388  55.72     687.8113     0.998     0.827      5.352     83.78378  20.9563        958
 5.14   0.1380    983.6352    952.3682 -44.27     659.5999     1.029     0.854      3.487     83.79326  21.0018        959
 3.97   0.0066   1306.5763   1034.6173 -38.63     13687.43     2.883     2.225      6.927     83.76482  17.7092        960
 5.10   0.3453   1179.1798    804.8381 -43.97     263.5715     0.760     0.567      2.646     83.81222  21.9978        961
 3.50   0.0194   1291.6342    411.0501  47.23     4679.815     1.393     1.385      3.337     83.81222  18.8744        962
 3.84   0.1139   1276.5541    341.9091   0.17     798.5599     1.037     0.934      2.451     83.72688  20.7942        963
 4.78   0.1124   1282.2822   1567.5802 -25.62     809.7907     0.956     0.926      3.409     83.80274  20.7791        964
 3.50   0.0109   1200.7344    337.4216 -85.04      8327.87     1.527     1.481      3.427     83.80274  18.2487        965
 3.50   0.0016   1271.7943    608.2745 -57.94     57583.06     4.700     2.690      9.164     83.83117  16.1493        966
 4.38   0.0523   1298.1959     52.1956 -14.09     1738.502     1.299     1.158      3.728     83.75534  19.9496        967
 5.00   0.1509   1302.3595     41.0330  74.89     603.2132     0.973     0.745      2.711     83.82169  21.0988        968
 4.11   0.0442   1261.1654    853.7753 -72.93     2058.609     1.346     1.194      3.632     83.79326  19.7661        969
 4.74   0.0627   1290.6379    544.2036  -9.64      1451.81     1.184     1.135      3.989     83.78378  20.1452        970
 4.62   0.3117    977.8370   1064.7621 -21.83      292.116     0.910     0.673      2.535     83.84064  21.8861        971
 4.49   0.1882    976.3340   1279.1010   8.66     483.4215     1.105     0.884      2.687     83.76482  21.3392        972
 4.06   0.0168    980.0076    796.3323 -73.32     5410.997     2.027     1.803      5.555     83.83117  18.7168        973
 3.50   0.0025   1290.3904    760.6078 -27.66     36063.14     2.320     1.762      4.695     83.74586  16.6573        974
 4.90   0.1191   1292.6594   1089.9292  13.47     763.6027     1.088     0.882      3.998     83.75534  20.8428        975
 4.40   0.0381    977.1331    451.0668 -39.97     2385.833     1.514     1.351      4.107     83.72688  19.6059        976
 4.78   0.0761    981.2401   1485.5278  85.40     1196.038     1.178     1.087      3.912     83.78378  20.3556        977
 3.50   0.0130   1258.4731    430.8547  -8.03     7013.609     2.376     2.228      6.007     83.74586  18.4351        978
 3.50   0.0042   1277.2070   1329.9368 -82.53     21924.83     1.693     1.643      3.581     83.83117  17.1977        979
 5.89   0.2904   1197.0349    411.0031  41.07     313.3574     0.785     0.772      4.162     83.79326  21.8099        980
 5.28   0.2598   1283.9741    335.3248  86.16     350.1392     0.727     0.675      2.485      83.7743  21.6894        981
 3.50   0.0000   1220.4823    993.4163 -37.77      2881878     7.578     7.152     11.689     83.79326  11.9008        982
 4.72   0.3213   1282.9823    860.6916 -87.47     283.1391     0.731     0.684      2.671      83.7743  21.9200        983
 7.12   0.0380   1194.8246   1051.5466  23.28     2395.776     1.611     1.217      9.135     83.83117  19.6014        984
 7.95   0.0977   1178.3083   1306.1929  27.17     931.4102     1.029     0.782      6.040     83.75534  20.6271        985
 7.33   0.0665   1311.9750    998.1782  24.14     1367.709     1.428     1.349      8.567     83.79326  20.2100        986
 3.77   0.0514   1272.8544    696.4041 -36.79     1770.873     1.509     1.327      4.182     83.85011  19.9295        987
 4.44   0.1090   1171.6045    231.0946 -41.80     834.8157     1.130     1.017      3.095     83.75534  20.7460        988
 3.50   0.0053   1264.4137    806.2878 -53.77     17022.31     1.596     1.575      3.452     83.78378  17.4725        989
 3.80   0.2243   1172.3651    206.6084 -37.08     405.6608     0.986     0.860      2.218     83.80274  21.5296        990
 3.50   0.1027   1261.2965    214.4017 -16.98     886.0534     1.153     1.051      2.824      83.7743  20.6813        991
 4.73   0.0699   1073.4191    350.8751  56.43     1301.568     1.618     1.222      5.574     83.83117  20.2638        992
 5.71   0.0519   1237.0530    855.8490 -63.65     1752.451     1.573     1.260      6.966     83.78378  19.9409        993
 3.50   0.0065   1233.3096    303.1423  18.32     14053.07     1.556     1.536      3.375     83.73637  17.6806        994
 3.64   0.0125   1150.1465     97.7522 -36.54     7302.487     1.544     1.434      3.483     83.79326  18.3913        995
 6.52   0.1817   1152.1550    574.7542 -35.67     500.9815     1.059     0.528      3.421     83.81222  21.3004        996
 3.51   0.0188   1241.5562    671.1758 -25.54     4829.626     1.393     1.354      3.129     83.81222  18.8402        997
 4.95   0.0855   1242.9980    612.2227  22.85     1063.923     1.099     0.994      4.085     83.78378  20.4827        998
 4.59   0.2271   1145.6395    793.0922 -71.89     400.2531     0.981     0.738      2.754     83.70791  21.5442        999
 8.63   0.1352   1223.6670    166.6732 -45.28     672.6422     0.574     0.335      3.446      83.7174  20.9805       1000
 8.08   0.3466   1256.3369    785.6838  45.96     262.4114     0.571     0.336      2.870     83.74586  22.0025       1001
 7.90   0.5079   1266.6522   1225.3049  47.01     179.0255     0.571     0.336      2.179     83.72688  22.4177       1002
 3.50   0.0006   1137.4563    146.3187 -42.47     160243.3     1.961     1.925      3.774     83.74586  15.0380       1003
 5.16   0.0184   1228.8237    597.3657  11.27     4942.584     2.186     2.045      8.528     83.79326  18.8151       1004
 4.66   0.1416   1144.4586   1337.5741 -25.39     642.9001     1.800     0.663      4.378     83.80274  21.0296       1005
 3.55   0.0405   1236.5978     46.4783 -25.58     2244.503     1.265     1.245      2.999     83.80274  19.6722       1006
 6.95   0.2674   1223.5723    403.7314  18.80     340.3727     0.740     0.458      3.001     83.79326  21.7201       1007
 6.87   0.3468   1145.5074    325.5353  51.36     262.2684     0.502     0.497      2.610     83.75534  22.0031       1008
 3.50   0.0018   1218.0103   1193.4858  60.77     49258.21     2.082     1.947      4.169     83.78378  16.3188       1009
 7.98   0.2009   1235.3204   1083.3505 -43.74     452.7206     0.579     0.332      2.823     83.75534  21.4104       1010
 3.63   0.1891   1243.6218   1537.6320 -44.88     481.2567     0.830     0.527      2.077     83.78378  21.3441       1011
 8.55   0.1550   1266.7814   1319.3940 -72.31     586.8767     0.758     0.452      3.983     83.76482  21.1286       1012
 3.50   0.0104   1236.1622   1552.1968 -65.12     8729.927     1.596     1.470      3.591     83.78378  18.1975       1013
 3.50   0.1066   1018.5269   1153.4111  -0.33     854.0622     1.229     0.946      2.815     83.83117  20.7213       1014
 7.55   0.0381   1227.6276    913.8499 -46.39     2386.006     2.023     1.571     12.138     83.81222  19.6058       1015
 6.16   0.2080   1205.8582    721.3466  21.94     437.4111     0.897     0.672      4.016     83.76482  21.4478       1016
 4.06   0.0705   1203.3120   1215.9677 -84.29     1291.231     1.211     1.092      3.605     83.76482  20.2725       1017
 3.50   0.0018   1209.7362   1277.4784  80.56        50038     6.224     3.768     12.167      83.7174  16.3018       1018
 4.00   0.0097   1193.9706    122.6117 -61.13     9388.628     2.764     2.215      7.145     83.80274  18.1185       1019
 8.08   0.0572   1187.7859    935.4896 -87.53     1591.888     1.203     1.011      7.220     83.78378  20.0452       1020
 5.73   0.1231   1119.7361    638.2556  27.56     738.8925     1.206     0.860      5.185     83.74586  20.8785       1021
 3.50   0.0915   1051.3622    235.9432  32.08     994.2573     1.490     1.156      3.632     83.79326  20.5563       1022
 3.50   0.0159   1200.0221   1440.7618  59.48     5707.137     1.894     1.712      4.384     83.80274  18.6590       1023
 4.51   0.0755   1209.5909   1414.3743   9.66     1205.698     1.422     1.143      3.449     83.79326  20.3469       1024
 4.15   0.2821   1195.9269   1332.2697 -14.97     322.2583     0.995     0.748      2.561      83.7174  21.7795       1025
 4.61   0.0635   1220.3372   1429.9238  84.77     1431.466     1.417     1.154      3.979     83.73637  20.1605       1026
 6.99   0.2859   1213.7550    819.9827  -0.83      318.374     0.692     0.430      2.554     83.81222  21.7927       1027
 3.50   0.0103   1206.7311    837.2480 -41.52     8806.235     1.541     1.463      3.442     83.75534  18.1880       1028
 3.50   0.0585   1180.6982    174.5491  26.47     1554.415     1.238     1.222      2.879     83.67944  20.0711       1029
 5.70   0.0750   1209.7368    827.6579  16.90     1213.635     1.448     1.148      5.611     83.76482  20.3398       1030
 3.50   0.0012   1213.5745    511.3500 -38.01     75777.02     1.835     1.828      3.680     83.83117  15.8512       1031
 6.09   0.4940   1207.7600    394.6057  72.26     184.2277     0.730     0.457      2.319     83.80274  22.3866       1032
 4.58   0.3583   1196.0884   1199.0935  46.17      253.746     0.884     0.530      2.402      83.7174  22.0390       1033
 4.94   0.2546   1185.0298    389.9896  -6.69     357.4065     0.789     0.775      2.704     83.80274  21.6671       1034
 6.12   0.0331   1181.9106    672.2681 -57.78     2749.141     1.557     1.403      8.077     83.73637  19.4520       1035
 3.73   0.0299   1179.9535    547.8245  33.47     3043.213     1.364     1.357      3.442     83.82169  19.3417       1036
 4.36   0.1179   1184.2402    312.2132 -22.80     771.7244     1.078     0.962      3.442     83.79326  20.8313       1037
 4.12   0.0265   1160.7577    886.1613 -11.43     3441.247     1.344     1.266      3.509     83.82169  19.2082       1038
 7.61   0.9371   1186.3094   1131.6678  43.87     97.04066     0.566     0.339      2.912     83.73637  23.0826       1039
 6.26   0.3049   1192.4258   1420.2084  19.71     298.4438     0.732     0.455      2.406     83.79326  21.8628       1040
 7.65   0.1772   1207.4939    897.5187  46.79     513.3179     0.502     0.497      2.837     83.73637  21.2740       1041
 7.24   0.1565   1114.8074    506.0762 -30.74     581.5743     1.027     0.650      5.185     83.81222  21.1385       1042
 6.07   0.1470   1186.1923   1233.0450  56.35     619.1663     1.160     0.885      4.690     83.81222  21.0705       1043
 6.56   0.1444   1174.8932    251.6610  11.06     629.6073     1.015     0.750      4.175     83.73637  21.0523       1044
 3.50   0.0000   1150.6979    692.2507 -40.10      3053468     2.991     2.766      4.502     83.67944  11.8380       1045
 4.30   0.0548   1144.4299    768.3488 -61.36     1659.603     1.771     1.209      4.816     83.81222  20.0000       1046
 3.85   0.0029   1171.4708    756.1021 -33.22     30964.23     3.960     3.868      9.420     83.74586  16.8228       1047
 5.56   0.0955   1175.9377     17.3926 -22.54     953.6707     1.619     1.005      5.086     83.84064  20.6015       1048
 6.61   0.1387   1125.2902    164.8492  70.61     655.7343     0.895     0.680      4.205     83.73637  21.0082       1049
 4.50   0.0432   1166.0374   1598.7543  85.63     1694.423     1.490     1.059      3.611     67.42683  19.9774       1050
 5.45   0.0345   1091.8989    427.6651  30.14     2640.279     2.425     1.868      9.091     83.75534  19.4959       1051
 4.44   0.0851   1175.9453   1597.4050 -79.72     930.2145     1.094     1.028      3.234     72.86201  20.6285       1052
 7.06   0.0655   1156.7014    969.3441 -40.41     1388.118     1.126     1.041      6.757     83.69842  20.1939       1053
 3.72   0.0184   1152.6770   1351.5101  43.01     4939.279     1.759     1.731      4.531      83.7174  18.8158       1054
 4.99   0.1521   1155.5557    350.0587 -27.73     598.0923     1.037     0.948      3.558      83.7743  21.1081       1055
 3.50   0.0031   1156.7567    234.6808 -67.11     29797.21     1.714     1.687      3.593     83.76482  16.8646       1056
 6.51   0.2417   1154.2673   1123.8539  24.62     376.3509     0.860     0.605      3.383     83.74586  21.6110       1057
 7.23   0.1084   1166.2483    638.0128 -83.71     839.5623     0.920     0.751      5.520     83.82169  20.7399       1058
 7.19   0.2362   1161.4749      1.5296 -45.59     295.0633     0.505     0.493      2.657     64.17992  21.8752       1059
 5.00   0.1011   1156.9889    184.2023 -31.23     899.9075     1.329     1.192      4.202     83.75534  20.6645       1060
 8.50   0.0643   1159.9375    652.5840  -4.77     1414.059     1.459     0.757      8.616      83.7743  20.1738       1061
 4.84   0.0667   1155.0481    565.7809 -78.75     1364.138     1.556     1.233      4.208     83.80274  20.2129       1062
 4.26   0.3450   1208.3016   1453.4398 -82.28     263.4735     0.946     0.484      2.083     83.70791  21.9982       1063
 5.54   0.0886   1146.6655    110.8165 -14.66     1027.156     1.117     0.937      3.864     83.81222  20.5209       1064
 8.68   0.0599   1217.2678    929.2231  70.57     1520.301     1.152     0.786      6.913     83.81222  20.0952       1065
 6.84   0.0301   1140.6166    660.0571 -21.11     3022.213     2.373     1.795     12.816     83.79326  19.3492       1066
 6.69   0.0453    990.3327      7.2293 -21.98     1990.861     1.737     1.266      7.643      82.9645  19.8024       1067
 5.84   0.1724   1222.1085    828.6718 -10.95     527.3658     0.980     0.747      3.680     83.73637  21.2447       1068
 4.41   0.0435   1132.9391    605.9112  73.48     2092.821     1.391     1.379      4.896     83.74586  19.7482       1069
 6.94   0.1729   1219.5068     73.4842  18.65     525.8854     0.967     0.415      3.286     83.70791  21.2478       1070
 7.14   0.2971   1125.6958    619.6655 -43.46     306.1668     0.565     0.339      2.098     83.74586  21.8351       1071
 8.58   0.1760   1139.2007    423.4065  70.51     516.6425     0.780     0.442      4.560     83.74586  21.2670       1072
 3.99   0.0118   1211.9031   1427.9541  72.88     7726.713     2.943     2.409      7.523     83.69842  18.3300       1073
 5.13   0.1295   1128.6337    503.3135  55.99     702.7069     1.020     0.956      3.018     83.78378  20.9331       1074
 4.07   0.2956   1124.4620    274.7958  86.87      308.045     0.911     0.731      2.320     83.84064  21.8285       1075
 3.87   0.0257   1072.2122      5.1864  25.59     3304.758     1.357     1.306      3.463     78.14292  19.2521       1076
 4.49   0.0624   1130.0833    357.5840 -18.88     1459.164     1.294     1.126      3.666     83.80274  20.1397       1077
 3.88   0.0260   1128.2203    545.7869 -63.31     3494.304     1.398     1.323      3.414     83.76482  19.1916       1078
 3.50   0.0011   1128.9330    181.7584 -65.97     83533.33     1.857     1.799      3.692     83.78378  15.7453       1079
 4.59   0.2352   1129.2748   1143.1685 -67.45     386.7844     0.898     0.673      2.392     83.76482  21.5813       1080
 3.58   0.0080   1119.3263    328.0645  59.53     11410.85     3.112     1.962      6.692     83.72688  17.9067       1081
 3.95   0.3627   1134.3956    249.1927  18.48     250.8047     0.751     0.450      2.143      83.7743  22.0517       1082
 7.73   0.0718   1128.5703    872.3510  50.06     1268.008     1.098     0.947      6.587     83.81222  20.2922       1083
 3.50   0.0275   1129.1437    217.8233  -0.90     3311.325     1.679     1.377      3.660     83.81222  19.2500       1084
 4.72   0.1359   1127.0687    836.1553  72.39     669.4014     1.140     1.096      3.808     83.76482  20.9858       1085
 6.99   0.1639   1121.8944    916.8176 -47.45     555.0719     0.830     0.681      3.963      83.7743  21.1891       1086
 3.50   0.0839   1115.4246   1168.9977 -30.26     1084.895     1.869     1.173      4.427      83.7743  20.4615       1087
 5.00   0.0125   1110.1536    478.0455  21.94      7256.42     3.592     2.456     11.270     83.81222  18.3982       1088
 5.43   0.0208   1104.6339    677.1640  42.12     4368.508     2.389     1.925      9.211     83.83117  18.9492       1089
 4.97   0.0276   1113.0698    672.7105 -49.07     3293.198     1.487     1.374      5.741      83.7174  19.2560       1090
 3.50   0.0026   1106.4424    426.3352  -2.97     35405.89     1.778     1.734      3.683      83.7743  16.6773       1091
 6.65   0.1065   1123.6516    756.7012 -55.08     853.2325     1.395     0.713      6.031     83.67944  20.7223       1092
 3.83   0.0418   1227.7966   1152.1625   6.95     2177.486     1.283     1.180      3.251     83.78378  19.7051       1093
 7.06   0.0717   1120.9031    739.7697   1.21     1267.488     1.153     1.103      6.915     83.72688  20.2926       1094
 7.46   0.0762   1116.5735    663.2923 -55.12     1193.896     1.202     0.903      7.096     83.75534  20.3576       1095
 6.49   0.1158   1107.3492    969.5021 -38.59     784.4937     1.153     0.787      5.542     83.67944  20.8135       1096
 6.57   0.0990   1107.8087   1122.0542 -24.47     920.1357     1.089     0.986      6.009     83.84064  20.6404       1097
 3.50   0.0017   1103.5216    750.2457 -80.52     54716.21     1.840     1.805      3.740     83.74586  16.2047       1098
 6.27   0.1995   1098.0856    861.6343  23.30     456.1003     0.913     0.684      3.638     83.78378  21.4023       1099
 3.66   0.1435   1105.8539   1265.6027 -73.49     634.5983     0.996     0.937      2.864     83.84064  21.0438       1100
 3.78   0.0560   1093.7102   1134.7550  43.87     1623.358     1.241     1.189      3.203     83.73637  20.0240       1101
 6.48   0.1843   1083.3682    844.8711  18.69     493.7522     1.155     0.559      6.289     83.78378  21.3162       1102
 4.54   0.0218   1089.9347    466.4854 -61.50      4168.23     2.975     1.457      7.526     83.73637  19.0001       1103
 6.86   0.1308   1104.0472    625.1929   0.87     696.0192     0.903     0.747      4.875     83.82169  20.9434       1104
 7.83   0.3118   1100.2462   1350.5948 -71.54     291.9357     0.741     0.455      3.235     83.82169  21.8868       1105
 3.50   0.0006   1093.8265    776.4818  77.16     154362.5     1.961     1.927      3.793      83.7743  15.0786       1106
 6.57   0.1032   1100.1895    111.4014   3.89     881.8538     1.532     0.729      5.718     83.76482  20.6865       1107
 3.50   0.0333   1078.2745    328.4379 -72.47     2732.674     1.321     1.270      3.188      83.7743  19.4585       1108
 6.71   0.3642   1086.4587   1010.4974 -89.79      249.637     1.024     0.500      3.262      83.7174  22.0567       1109
 6.34   0.1205   1025.2939      5.6823 -44.62     716.3542     1.023     0.855      4.788     79.48328  20.9122       1110
 4.58   0.1390    991.3894    344.4407 -41.58     654.8908     1.046     0.911      3.380     83.79326  21.0096       1111
 3.50   0.0515   1085.4760   1451.4103  72.66     1767.543     1.706     1.298      3.801     83.83117  19.9316       1112
 4.70   0.0255   1036.8929    120.3716 -38.12     3572.819     2.717     1.447      6.172     83.75534  19.1675       1113
 4.56   0.0602   1087.1880    395.1648  66.43     1512.679     1.463     1.220      3.949     83.80274  20.1006       1114
 3.50   0.0018   1080.8375   1146.6793  76.04     49473.44     1.813     1.771      3.683     83.75534  16.3141       1115
 3.50   0.0005   1079.0332    510.4736 -24.60     169935.6     1.953     1.929      3.770     83.76482  14.9743       1116
 4.91   0.4574   1092.0052     85.9887   0.12      198.822     0.615     0.591      1.590     83.73637  22.3038       1117
 3.50   0.0201   1094.6221   1525.1913 -19.28     4536.961     1.401     1.306      3.049     83.78378  18.9081       1118
 4.39   0.0328   1082.7184     41.1866 -14.53     2777.435     1.718     1.416      4.623     83.80274  19.4409       1119
 3.50   0.0056   1088.2264    640.8442 -72.59     16126.26     1.609     1.598      3.511     83.83117  17.5312       1120
 6.21   0.1279   1076.9998    467.1212  -3.27     711.6155     0.902     0.754      4.293     83.80274  20.9194       1121
 5.59   0.0775   1079.4098     51.4028 -79.52     1173.301     1.106     1.038      4.953     83.75534  20.3765       1122
 3.83   0.0522   1065.7271    567.4913 -56.50     1743.183     1.476     1.201      3.772     83.73637  19.9466       1123
 3.50   0.0006    983.9257    556.8555 -42.57     151640.2     1.926     1.904      3.732     83.74586  15.0980       1124
 4.71   0.1041   1078.1080    920.8275  66.19     874.1139     1.124     1.073      3.831     83.75534  20.6961       1125
 3.86   0.0089   1071.2220   1217.4718 -71.39     10269.05     2.761     2.228      7.109     83.82169  18.0212       1126
 3.87   0.0941   1062.9009    290.3270 -17.99      965.774     1.326     1.092      3.605     83.70791  20.5878       1127
 4.14   0.0159   1058.9795    725.3511  27.58     5719.234     2.247     1.912      6.252     83.80274  18.6567       1128
 3.50   0.0435   1064.8350   1595.6906 -33.70     1960.393     1.263     1.153      2.920     78.50798  19.8191       1129
 4.21   0.0321   1062.2283      5.4857 -52.96     2673.613     1.298     1.259      3.346     79.01221  19.4823       1130
 4.57   0.1526   1059.5107    689.4771   0.05      595.821     0.932     0.864      2.515      83.7174  21.1122       1131
 6.36   0.0999   1046.7865   1156.9656  27.93     910.8033     1.197     0.850      5.957     83.81222  20.6514       1132
 4.24   0.1075   1051.7198    398.9368 -89.36     845.8334     1.348     1.059      3.645     83.72688  20.7318       1133
 6.01   0.1461   1055.1431    663.3669  13.34     622.8266     1.013     0.744      4.806     83.80274  21.0641       1134
 3.50   0.0004   1039.2853    631.3804 -49.34     218320.6     2.088     1.939      3.816     83.79326  14.7023       1135
 6.18   0.3130   1057.1534   1123.1493 -43.75     290.8201     0.844     0.666      3.335     83.81222  21.8909       1136
 3.50   0.0020   1037.6875    523.7844  82.33     44536.87     1.797     1.754      3.674      83.7743  16.4282       1137
 5.57   0.3079   1052.6602   1383.8416 -68.89      295.482     0.890     0.685      2.805     83.78378  21.8737       1138
 6.02   0.0856   1027.8234    179.1355 -52.97     1063.262     1.423     1.147      5.809     83.80274  20.4834       1139
 4.94   0.0556   1039.5846    465.5715  37.87     1636.438     1.452     1.312      5.522     83.80274  20.0152       1140
 3.97   0.2530   1047.2478    206.8765 -11.74     359.5127     1.094     0.833      2.994     83.74586  21.6607       1141
 5.50   0.0994   1042.3126    808.1299 -14.47     914.5193     1.112     0.924      4.411      83.7174  20.6470       1142
 4.02   0.1171   1016.2695    199.5809  18.99      777.478     1.236     1.122      3.011     83.83117  20.8233       1143
 4.06   0.1013   1041.7119   1094.4143  28.50      897.818     1.437     1.001      3.731     83.78378  20.6670       1144
 3.55   0.0098   1029.2145    300.9569  69.13     9300.407     2.901     2.072      6.145     83.79326  18.1287       1145
 3.50   0.0000   1022.7297     48.6186 -37.90      2239764     2.685     2.505      4.169     83.82169  12.1745       1146
 3.67   0.1509   1027.3291    350.5170 -66.38     602.4825     1.107     1.000      2.844      83.7174  21.1001       1147
 3.74   0.2246   1025.4962   1265.4888  14.80     404.6018     0.939     0.828      2.796     83.68893  21.5324       1148
 4.28   0.0164   1064.3027   1561.6237 -68.73     5543.216     2.962     1.914      7.588     83.74586  18.6906       1149
 5.29   0.1138   1036.3783    240.4039 -37.58     799.5767     1.027     0.935      3.463      83.7743  20.7928       1150
 3.57   0.1544   1027.0311    462.4027 -37.76     589.1589     0.988     0.881      2.560     83.78378  21.1244       1151
 5.02   0.2564   1032.5149    492.2410   0.18     354.8634     0.980     0.733      2.951      83.7743  21.6748       1152
 4.17   0.0524   1020.2591   1267.1692  47.80     1737.198     2.514     1.303      5.285     83.80274  19.9504       1153
 3.50   0.0011   1008.8619    812.1073 -82.81     85350.48     1.877     1.834      3.725     83.74586  15.7220       1154
 3.50   0.0730   1013.5268    451.3891  27.57     1247.749     1.345     1.170      3.115     83.83117  20.3097       1155
 6.32   0.2850   1063.4943   1411.9753  -0.16     319.1855     0.781     0.500      2.879     83.75534  21.7899       1156
 3.50   0.0009   1024.8649   1378.5510 -82.06     99453.23     1.953     1.831      3.672     83.76482  15.5560       1157
 7.73   0.2276   1030.0013   1250.8098  33.43      399.758     0.827     0.511      4.036     83.76482  21.5455       1158
 5.29   0.1311   1032.7292    100.3251  -5.16     693.6396     1.095     0.923      3.250      83.7174  20.9472       1159
 3.67   0.0416   1067.0671   1472.6465  14.80     2189.413     2.853     1.685      6.749      83.7743  19.6992       1160
 5.60   0.3680   1022.9913    581.0145  45.11     247.0981     0.892     0.530      2.836     83.73637  22.0678       1161
 3.50   0.0069   1010.2941    343.0845 -43.84     13127.33     1.582     1.572      3.482     83.68893  17.7546       1162
 4.61   0.0923   1026.7218    605.8604 -20.37      985.558     1.088     0.985      3.062     83.74586  20.5658       1163
 4.24   0.2099   1029.0066    945.7131 -19.93     433.5079     1.008     0.735      3.453      83.7743  21.4575       1164
 5.65   0.2443   1031.0654   1166.3285  84.44     372.2599     0.728     0.660      2.715     83.72688  21.6229       1165
 5.32   0.1958   1028.5928   1033.8938  69.92     464.6958     0.977     0.731      3.460     83.76482  21.3821       1166
 5.02   0.0513   1009.9540    266.0563  51.17     1774.759     1.434     1.326      5.277      83.7743  19.9272       1167
 8.13   1.0202   1011.4933   1420.4790  46.47     89.12449     0.504     0.496      3.022     83.72688  23.1750       1168
 4.73   0.1072    992.2521    498.1241 -23.07     848.4828     1.114     0.990      2.759     83.72688  20.7284       1169
 6.00   0.1981   1008.5602    188.8148 -20.76     459.5225     0.877     0.755      3.823     83.81222  21.3942       1170
 5.88   0.4846   1045.1786   1524.8705 -45.08      187.835     0.749     0.566      2.574     83.82169  22.3656       1171
 7.97   0.0958   1024.3489    126.8366  28.95     949.4724     0.992     0.925      5.953     83.78378  20.6063       1172
 3.50   0.0064   1000.7156    541.0194  18.60      14329.7     1.665     1.606      3.655     83.79326  17.6594       1173
 3.50   0.0155   1000.5395   1554.0876  45.04     5871.854     1.412     1.405      3.214     83.73637  18.6281       1174
 8.22   0.1166   1003.3071      6.3228 -44.16     755.8879     0.561     0.341      3.367     81.13493  20.8539       1175
 3.50   0.0202    998.9015   1272.4629 -26.60     4496.132     1.457     1.308      3.120     83.74586  18.9179       1176
 4.58   0.2589    998.6765   1439.8641 -68.05     351.2202     0.896     0.674      2.683     83.72688  21.6861       1177
 3.50   0.0755    997.2492    231.6880 -45.35     1204.855     1.223     1.170      3.054     83.74586  20.3477       1178
