#   1 KRON_RADIUS            Kron apertures in units of A or B                         
#   2 MAGERR_APER            RMS error vector for fixed aperture mag.                   [mag]
#   3 Y_IMAGE                Object position along y                                    [pixel]
#   4 X_IMAGE                Object position along x                                    [pixel]
#   5 THETA_IMAGE            Position angle (CCW/x)                                     [deg]
#   6 FLUX_APER              Flux vector within fixed circular aperture(s)              [count]
#   7 A_IMAGE                Profile RMS along major axis                               [pixel]
#   8 B_IMAGE                Profile RMS along minor axis                               [pixel]
#   9 FLUXERR_APER           RMS error vector for aperture flux(es)                     [count]
#  10 MAG_APER               Fixed aperture magnitude vector                            [mag]
#  11 NUMBER                 Running object number                                     
 4.41   0.0072     54.0758     63.6034   6.75     34514.28     4.379     4.004     227.9692  16.7050          1
 3.66   0.0508     17.4136    984.8228 -87.92     4870.981     3.732     1.708     228.0714  18.8310          2
 3.81   0.0622     18.7962     91.1034 -67.25     3980.636     1.571     1.479     227.9321  19.0501          3
 3.50   0.0267     15.4618   1445.5586 -65.93     9283.615     1.661     1.588     227.9785  18.1307          4
 7.63   1.2402      4.3685    145.1962  17.69     166.3203     0.755     0.445     189.9428  22.4976          5
 5.90   0.9804     18.0262    384.0147  44.76     252.6133     0.889     0.533     228.0435  22.0439          6
 4.26   0.7646     25.4560    366.9562 -30.78     323.8445     1.205     1.017     228.0157  21.7742          7
 3.50   0.0056     60.5946   1078.2482  78.99     44391.56     2.003     1.894      228.025  16.4317          8
 8.74   0.5532     34.3225    326.3239 -44.93     447.5709     0.568     0.338     227.9971  21.4228          9
 7.76  99.0000     43.0166    915.4982 -57.51    -180.2722     0.786     0.317     227.8949  99.0000         10
 3.50   0.0002    182.7565   1107.2883 -33.46      1063558     5.458     4.811     227.9692  12.9831         11
 3.50   0.0058     80.9641    537.4206 -64.56      42641.4     1.933     1.854     228.0807  16.4754         12
 4.32   0.1734     76.0022    127.6434   4.16     1427.768     1.252     1.146     228.0343  20.1634         13
 7.41   0.6190     82.8177    421.3966 -70.69     400.1003     0.768     0.443     228.0435  21.5446         14
 6.37   0.4974     91.1871    376.8294 -45.36     497.9148     1.373     1.033     228.0343  21.3071         15
 3.50   0.0039    122.5955    788.9210 -60.42     63799.32     2.028     1.903     227.9599  16.0380         16
 4.18   0.1059     97.3836     55.9652  26.68     2339.416     1.407     1.368       228.09  19.6272         17
 7.03   0.4206     99.0022    452.5193 -26.45     588.5698     1.068     0.660     227.9599  21.1255         18
 3.50   0.0069    163.1363   1468.1375 -62.90     35635.18     1.913     1.819     227.9692  16.6703         19
 3.50   0.0009    194.4274    317.8813 -61.95     272568.6     2.315     2.075     227.9599  14.4613         20
 3.50   0.0314    171.1503    877.1309 -55.12     7892.188     1.658     1.594     227.9414  18.3070         21
 4.65   0.0074    235.6645    403.5279 -41.76     33627.89     5.702     4.705     227.9785  16.7332         22
 4.54   0.7556    165.6820   1445.5413  19.57     327.6845     1.115     0.930     227.9785  21.7614         23
 5.53   0.1007    172.4563    325.0473 -86.86     2459.311     1.300     1.158     227.9971  19.5730         24
 5.47   0.5638    167.5449    104.2042 -51.07     439.2301     0.985     0.937     228.0157  21.4433         25
 7.85  99.0000    170.3342   1368.3384 -44.83    -377.9124     0.580     0.332     227.9507  99.0000         26
 4.60   0.3041    193.3884   1350.3032 -37.44      813.857     1.279     1.002      227.867  20.7736         27
 4.70   0.0572    211.6114    827.4163  -9.06     4331.042     2.963     1.698     228.0528  18.9585         28
 3.73   0.1477    207.4908    548.9009 -53.40     1676.434     1.382     1.220     227.9321  19.9890         29
 7.24   0.3566    204.4811    250.5076  36.95     694.3294     0.500     0.499     227.9599  20.9461         30
 6.12   0.1450    209.4427    349.7659  55.13     1707.839     1.427     1.084      228.025  19.9689         31
 3.50   0.3900    212.9865   1305.8654 -82.20     634.8802     1.291     1.247     228.0064  21.0433         32
 6.31   0.5478    211.4448    684.7709 -89.13     452.0558     0.978     0.724     228.0064  21.4120         33
 5.92   0.0676    231.0869    561.7985 -14.58     3662.337     2.541     2.369     227.9414  19.1406         34
 4.19   0.2244    224.5206   1225.8544 -66.20     1103.519     1.409     1.318     227.9785  20.4430         35
 3.97  99.0000    223.2466    774.6445 -11.22    -152.8914     1.088     0.911     227.9971  99.0000         36
 7.86   0.1473    223.2873    345.5081 -53.29      1680.93     1.094     0.828     227.9692  19.9861         37
 3.50   0.0021    260.5662    997.2288 -62.80     119806.5     2.052     1.951     228.0714  15.3538         38
 3.50   0.0030    266.7018     67.3903 -79.21     81556.69     2.030     1.922     227.8949  15.7713         39
 6.02   0.1904    244.4015    112.8098  87.30     1300.435     1.624     1.215     228.0528  20.2648         40
 9.02   0.5723    239.6895    838.6416 -42.96     432.5443     0.578     0.332     227.9599  21.4599         41
 4.94   0.0722    256.2683    612.7941 -36.28     3432.391     1.973     1.617     228.0528  19.2110         42
 7.04   0.2913    251.2775    107.5645 -70.48     849.6253     0.725     0.459     227.9321  20.7269         43
 7.50   0.5307    252.7829   1372.4308 -69.93     466.6819     0.740     0.453     228.0435  21.3774         44
 3.50   0.0007    313.2035    439.2134 -58.92     333751.1     2.277     2.111     228.0528  14.2414         45
 3.50   0.0132    288.3456   1486.2816 -50.16     18798.04     1.773     1.704     227.9785  17.3647         46
 7.79  99.0000    271.3755   1273.7629 -17.73     -307.588     0.755     0.447     228.0621  99.0000         47
 3.50   0.0649    282.7355   1522.1680 -58.33     3816.356     1.479     1.402     227.9878  19.0959         48
 4.39   0.1457    290.6225    514.6550 -64.31     1700.206     1.556     1.393     228.0343  19.9737         49
 3.50   0.0175    303.9821    201.5968 -63.35     14118.19     1.728     1.630     228.0435  17.6756         50
 3.50   0.0044    319.4946    905.2604 -60.82      56201.1     1.978     1.867     227.9507  16.1756         51
 3.78   0.1889    294.7055   1327.4375 -47.70     1310.111     1.323     1.264     227.9042  20.2567         52
 6.32   0.2335    294.4589   1475.2285 -88.93     1060.351     0.931     0.715      228.025  20.4864         53
 7.59   0.2057    297.7295   1413.8472 -57.77     1203.383     1.412     0.801     227.9692  20.3490         54
 3.50   0.0008    352.2283    890.5814 -56.08       294089     2.244     2.095     228.0621  14.3788         55
 4.63   0.2826    302.9988    563.5146 -82.91     876.1566     1.088     0.954     227.9599  20.6935         56
 3.50   0.0009    352.2422   1345.7249 -54.64     283696.5     2.216     2.086     227.9507  14.4179         57
 3.50   0.0291    322.8688    697.1343 -28.26     8511.402     1.647     1.600     227.9507  18.2250         58
 8.72   0.2709    308.5074     85.4808 -46.76     913.7745     0.502     0.497     227.9785  20.6479         59
 7.00   0.4450    322.6497    641.1228 -76.26     556.3961     1.652     0.634     227.9785  21.1865         60
 4.73   0.1464    328.1193    595.2094  20.51     1690.941     1.453     1.372     227.9414  19.9797         61
 5.75   3.6313    333.0812     93.3310 -24.07     68.18152     0.890     0.687     227.9785  23.4658         62
 3.77   0.0327    347.1420    866.8646 -45.26      7562.75     1.651     1.523     227.9414  18.3533         63
 6.63  99.0000    336.0265   1440.2896  89.92    -134.2957     0.726     0.676     227.9135  99.0000         64
 3.92   0.0443    356.6105    431.6310 -74.45      5584.73     1.829     1.608     228.0528  18.6825         65
 4.03   0.2175    350.8782     54.3170 -75.76     1138.316     1.161     1.104     227.9785  20.4093         66
 3.50   0.0253    368.9768    760.8847 -60.15     9784.737     1.613     1.559     227.9321  18.0736         67
 3.50   0.1605    362.1071   1500.2202  -8.85     1542.053     1.295     1.254     227.9135  20.0798         68
 3.69   0.0798    368.3008    442.6079 -45.71     3102.303     1.502     1.374     227.9042  19.3208         69
 4.74   3.1891    361.4756   1033.9357 -61.83     77.63844     0.989     0.667     227.9878  23.3248         70
 7.74   1.1100    360.5103    533.4985  44.33     223.0022     0.502     0.498     227.9228  22.1792         71
 3.50   0.0053    396.0154    231.2811 -64.09     47057.98     1.904     1.854     227.9228  16.3684         72
 7.45  99.0000    374.2168   1084.0029 -53.86    -33.31998     0.820     0.504     228.0435  99.0000         73
 4.16   0.4569    373.6597    992.2760 -47.14      541.955     0.976     0.860     227.9971  21.2151         74
 3.50   0.0406    397.8886   1460.9867 -46.68     6099.759     1.581     1.512     227.8949  18.5867         75
 3.50   0.0352    398.9886    354.3898 -62.43     7045.309     1.604     1.532     228.0528  18.4302         76
 3.63   0.2717    394.5599   1088.5066 -26.76     910.9385     1.303     1.293     227.9228  20.6513         77
 3.50   0.0057    420.4062    433.1503 -62.14     43461.26     1.902     1.807      228.025  16.4547         78
 3.50   0.0120    416.4527    837.1818 -63.71     20688.76     1.806     1.708     228.0435  17.2607         79
 7.95  99.0000    397.3274    977.3210 -45.30    -319.0506     0.569     0.338     227.9878  99.0000         80
 8.68   0.6662    398.4764    627.4811 -41.88     371.6716     0.500     0.499     227.9878  21.6246         81
 3.66   0.0754    425.0089    926.1632 -34.01     3282.698     1.506     1.402     228.0528  19.2594         82
 3.50   0.0161    438.7677    251.9255 -53.57     15332.03     1.734     1.667     227.9692  17.5860         83
 5.29   0.2172    421.8422    158.7650  45.21     1140.141     1.306     1.074     228.0343  20.4076         84
 3.50   0.0019    461.8552    807.3752 -53.65     133533.9     2.078     1.966      228.025  15.2360         85
 6.47   0.5258    427.6801   1179.1434  28.18     470.8795     0.860     0.608     227.9878  21.3677         86
 3.50   0.2051    433.6889   1421.8654 -43.82     1207.203     1.244     1.194     228.0064  20.3455         87
 6.15   0.2972    434.9741    150.9762  35.97     833.5905     0.787     0.769       228.09  20.7476         88
 3.59   0.0483    451.1293     21.1607 -44.60     5122.688     1.605     1.472     227.9785  18.7763         89
 4.18   0.4264    440.7336    305.4700 -18.10     580.6232     0.972     0.956     227.9507  21.1403         90
 5.32   0.0442    468.5677    850.2765  23.09      5602.66     6.473     1.667     227.9321  18.6790         91
 5.98   0.2102    446.1450    122.1042 -41.00     1177.458     1.212     1.029     227.9507  20.3726         92
 5.99   0.3529    447.9012    883.5998  -4.17      701.412     1.532     0.983     227.9042  20.9351         93
 3.54   0.0453    458.6724     34.3886 -61.55     5466.621     1.547     1.447     227.9971  18.7057         94
 7.28   1.0018    453.6877   1533.3097  45.15     247.1383     0.558     0.343     227.9692  22.0676         95
 3.80   0.1418    464.5611    468.4572 -57.87     1746.023     1.359     1.286     228.0064  19.9449         96
 5.78   0.3788    461.9602   1096.1885   3.86     653.8464     0.903     0.755     228.0714  21.0113         97
 4.10   0.1760    472.1687    254.1147 -70.05     1406.696     1.346     1.210     227.9321  20.1795         98
 3.87   0.1271    472.9409    734.7567 -45.64     1948.416     1.398     1.272     227.9878  19.8258         99
 3.50   0.0789    478.8141    922.8201 -14.94     3138.213     1.426     1.388     228.0528  19.3083        100
 4.39   0.2612    478.8120   1276.7761  79.76     948.0786     1.151     1.097     228.0435  20.6079        101
 3.50   0.2341    484.9312   1070.4033 -40.62     1057.844     1.257     1.173     228.0343  20.4889        102
 7.06   0.7846    479.6900    682.3505  43.19     315.5645     0.574     0.335     227.9971  21.8023        103
 5.24   0.1221    496.5620   1186.5326 -13.80     2027.803     2.531     1.477     227.9785  19.7824        104
 5.54   0.1427    496.9911     82.6506  42.17     1735.086     1.932     1.709      228.025  19.9517        105
 8.60   0.3154    489.1940    839.3719  71.60     785.1908     0.774     0.439     228.0064  20.8126        106
 3.50   0.0215    513.2878   1302.2383 -34.02     11539.14     1.737     1.662     227.9321  17.8946        107
 6.25   0.5559    499.0030    365.9965 -43.16     445.6122     0.888     0.533     228.0807  21.4276        108
 4.71   0.0142    533.8983    518.5938  29.05     17442.51     3.593     2.882     227.9135  17.4460        109
 4.67   0.5707    502.7880    863.4911 -88.24     433.6392     1.151     0.977     227.8763  21.4572        110
 5.91   0.2263    502.2048   1310.0718 -40.47     1094.109     0.845     0.651     227.9971  20.4523        111
 6.23   0.2226    505.1451    762.7928  -0.44     1112.518     1.309     1.253     228.0157  20.4342        112
 4.50   0.0872    516.1095   1460.7418  23.86     2838.382     3.656     1.299     227.9599  19.4173        113
 6.97   0.2529    510.6393    165.5776  -9.65     979.1912     0.956     0.809     228.0621  20.5728        114
 4.98   0.1298    514.2516   1310.0317 -10.83     1908.488     1.302     1.185      228.025  19.8483        115
 3.86   0.3462    514.4966   1179.0813 -24.60     715.1664     1.149     0.942     227.9785  20.9140        116
 6.45   4.8651    520.1909    641.4284 -43.08     50.89664     1.057     0.724     228.0064  23.7833        117
 3.84   0.1722    540.9624    999.7307 -73.14     1437.749     1.366     1.235     227.9785  20.1558        118
 3.50   0.0008    588.6868   1315.8517 -53.51     305983.1     2.208     2.086     227.9785  14.3358        119
 3.77   0.1125    559.8197   1041.5360 -10.01     2201.607     1.430     1.373     227.9692  19.6931        120
 6.55  14.3949    556.5087    778.4934  44.42     17.19807     0.501     0.499     227.9599  24.9613        121
 3.50   0.0372    573.3907   1242.7067 -70.93     6652.449     1.587     1.566     227.8949  18.4925        122
 4.80   0.1602    571.7554     45.6411  63.91     1545.242     1.743     1.230     228.0157  20.0775        123
 4.75   0.1475    571.9938   1447.6349  17.02     1678.479     1.936     1.347     228.0343  19.9877        124
 5.41   0.1645    565.7161    139.8198 -69.04     1504.548     0.941     0.673     227.9135  20.1065        125
 3.50   0.0268    581.4632    144.8293 -62.40     9243.258     1.657     1.558     227.9785  18.1354        126
 3.50   0.0270    582.9963    319.0084 -53.22     9186.344     1.652     1.592     228.0714  18.1421        127
 3.50   0.0005    631.9548    483.1556 -53.47     545836.6     2.703     2.536     228.0064  13.7073        128
 5.78   0.1170    575.6501   1336.6445 -73.37     2116.024     1.283     1.093     227.9878  19.7362        129
 7.40   3.0285    577.1536   1001.2869 -58.48     81.75117     0.881     0.595     227.9785  23.2688        130
 5.06   0.0457    597.7562    782.5263 -44.52     5418.224     2.724     2.576     227.9507  18.7154        131
 5.10   2.7881    585.4762     75.9200  -0.33      88.8031     1.098     0.936     227.9878  23.1789        132
 5.00   0.2585   1000.7210   1273.7208 -39.34     957.9202     1.144     1.095     228.0064  20.5967        133
 5.97   0.3391   1598.2085    655.0115 -35.87     573.4482     1.534     1.035     179.0377  21.1538        134
 5.89   0.1571   1595.7100    374.0864 -77.66      1353.35     0.996     0.765     195.7737  20.2215        135
 5.78   1.8394    965.9652    416.2867 -79.61     134.5602     0.732     0.686     227.9135  22.7277        136
 6.15   0.2955    952.0816    654.2863  50.14     837.6987     1.032     0.904     227.9692  20.7423        137
 5.27   4.9532    948.7292    445.0576 -10.29     49.98096     0.736     0.667     227.9599  23.8030        138
 4.35   0.1440    939.9413   1067.0511 -70.41     1719.028     1.362     1.231     227.9692  19.9618        139
 7.65   0.2712    939.0228    516.0239  42.70     913.3091     0.900     0.531       228.09  20.6485        140
 3.50   0.0174    930.5162   1178.4572 -74.12     14198.28     1.719     1.674     227.9785  17.6694        141
 4.68   0.2154    929.1131   1322.3604 -58.76     1149.374     1.197     1.136     227.9507  20.3988        142
 4.76   0.4758    913.6943    838.5510  -0.76      520.332     1.175     1.096     227.9785  21.2593        143
 5.71   0.4363    913.0289   1000.9688  21.72     567.7512     0.786     0.778     228.0992  21.1646        144
 7.36   0.7574    905.2064   1315.0332  37.37      326.995     0.941     0.465     228.0435  21.7636        145
 3.50   0.0455    901.2192    302.7968 -56.43     5439.779     1.598     1.493     228.0528  18.7110        146
 3.50   0.0003    882.8276    183.6549 -39.32     979829.2     3.919     3.518     228.0157  13.0721        147
 5.21   0.2352    897.0114    538.4737   4.14     1052.715     1.584     1.338     227.9878  20.4942        148
 6.81   4.6868    894.8954   1425.8496 -46.45     52.82196     0.836     0.667     227.9599  23.7430        149
 4.83   0.0422    880.0612    224.4287  89.40     5874.293     6.562     1.705     228.0064  18.6276        150
 3.50   0.0022    881.0674   1592.5128 -60.01     106895.1     2.043     1.933     213.5013  15.4776        151
 6.36   0.3332    889.6176    325.1285  22.79     743.0607     1.309     0.828     227.9785  20.8724        152
 5.72   0.4667    886.5520   1500.2416  80.29     530.5775     1.169     1.105     228.0157  21.2381        153
 6.10   0.4512    886.5384   1304.6620  66.27     548.7366     1.188     0.961     227.9692  21.2016        154
 6.94   0.4179    885.8094    339.1945 -44.36     592.6599     0.774     0.566     228.0807  21.1180        155
 6.29   0.1908    878.8572   1176.9626  70.73     1297.465     1.518     1.189     228.0064  20.2673        156
 5.06   0.3512    878.3696    960.6808  48.92     704.9158     1.058     0.941     227.9414  20.9297        157
 6.16   0.6663    877.6598    541.6873 -46.29      371.616     0.571     0.336     227.9878  21.6248        158
 4.70   0.0988    870.2359   1103.6483 -67.14     2505.909     1.791     1.565     228.0064  19.5526        159
 3.50   0.0009    860.0745   1224.5040 -47.86     268745.9     2.220     2.101     227.9785  14.4766        160
 6.18   0.3186    868.7445    939.5904  23.21     777.2598     1.548     1.093     228.0435  20.8236        161
 7.42   2.2782    870.4847    643.4907 -44.26     108.6665     0.503     0.497     227.9599  22.9598        162
 4.93   0.2361    860.3788   1157.4387   2.85       1049.2     1.270     1.034     228.0714  20.4979        163
 6.19   1.1699    859.1392   1339.7198 -63.00     211.6237     1.222     0.856     227.9692  22.2361        164
 7.18   0.1252    845.4885   1206.4347 -40.40     1976.214     1.106     0.846     227.9042  19.8104        165
 5.39   0.8008    845.7783   1063.5769 -17.74     309.3109     0.962     0.946     228.0714  21.8240        166
 5.13   0.2461    844.0469   1106.1366  18.76     1006.071     1.371     1.162     227.9599  20.5434        167
 5.79   0.1042    838.6966   1247.0575 -30.24     2375.567     1.687     1.411     227.9414  19.6106        168
 3.68   0.2133    837.3986    298.7006 -41.02     1160.491     1.274     1.135     227.9042  20.3884        169
 7.74   0.6170    837.6659   1520.3196  45.67     401.2255     0.572     0.336     227.9692  21.5415        170
 6.01   1.2600    836.5015    818.9826  87.56     196.4261     0.780     0.709     227.8949  22.3170        171
 3.55   0.0430    823.7706    654.3607 -50.90     5754.857     1.586     1.494     228.0621  18.6499        172
 3.50   0.0472    803.8652   1378.6172 -21.11     5242.909     1.614     1.532     227.9692  18.7511        173
 3.50   0.0151    799.2974    695.5888 -86.89     16350.19     2.458     1.710     227.8763  17.5162        174
 3.77   0.1079    801.5691     41.1000 -40.94     2293.102     1.385     1.304     227.8577  19.6489        175
 4.49   0.0941    774.8912   1427.3649 -86.80     2629.887     2.372     1.641     227.9228  19.5002        176
 3.58   0.2016    767.6208    391.7805 -77.22     1228.631     1.326     1.142     228.0714  20.3264        177
 4.38   0.1709    743.5647    556.2690 -45.83      1449.24     1.296     1.190     228.0064  20.1471        178
 5.56   0.9440    739.0013   1157.8271  -3.56     262.2921     0.889     0.757     227.9878  22.0030        179
 5.46   0.4966    736.9377    649.5374 -86.48     498.5202     1.078     0.943     227.9692  21.3058        180
 3.50   0.0007    724.9339    404.7116 -46.03     373680.8     2.308     2.135     228.0064  14.1187        181
 3.50   0.0039    727.4246    848.3138 -54.51     64059.88     2.010     1.913     227.9321  16.0335        182
 3.76   0.3792    728.1879   1178.1746 -80.28      653.159     1.233     1.142     228.0435  21.0125        183
 6.87   1.3665    722.0972   1394.8604  45.99     181.1654     0.837     0.666     227.9599  22.4048        184
 4.35   0.2178    716.6957    808.2407 -50.70     1136.489     1.294     1.146     227.8949  20.4111        185
 4.12   0.2260    709.6758   1163.7480 -64.48     1095.692     1.303     1.176     227.9785  20.4508        186
 4.64   0.1558    704.9998   1339.0659 -44.44     1589.274     1.527     1.354     228.0528  20.0470        187
 4.12   0.1079    703.4762    952.2360 -78.82     2294.767     1.470     1.383     227.9599  19.6482        188
 6.46   0.2996    699.8364    582.2878   0.45     826.3111     1.437     0.716     227.9228  20.7571        189
 6.01   0.6160    692.6067   1213.5936  65.46     402.1048     1.192     0.870       228.09  21.5392        190
 6.65   0.3141    687.8022   1213.6969 -66.41       788.05     1.196     0.746     227.9321  20.8086        191
 3.97   0.1140    686.3803    644.1360  57.91     2171.124     1.334     1.296     227.9785  19.7083        192
 6.16   2.1016    688.3210    130.7123  47.02     117.8169     0.551     0.345     227.9971  22.8720        193
 7.41   0.0862    684.1620    472.1445  54.53     2871.543     1.846     1.754     228.0157  19.4047        194
 5.56   0.1310    682.4091    543.5020 -73.36      1888.75     1.735     1.342     227.9135  19.8596        195
 3.50   0.0039    649.1288   1464.3005 -56.11     62681.45     1.944     1.851     227.9414  16.0572        196
 5.04   0.7157    655.5065    870.8812  18.06     345.9191     1.038     0.931     227.9599  21.7026        197
 5.14   0.4333    646.9894    652.9609  45.46     571.5872     0.873     0.532     228.0807  21.1573        198
 5.89  99.0000   1546.9692    863.3608  76.59    -244.5812     1.273     1.147     228.0621  99.0000        199
 3.50   0.0243    640.5834    536.7324 -68.54     10172.84     1.674     1.593     227.9785  18.0314        200
 4.91   0.8880    631.6395    805.9552 -55.79     278.8537     1.037     1.028      228.025  21.9366        201
 4.04   0.3943    624.1689   1581.3274 -34.91     627.8054     1.229     1.005     227.9692  21.0554        202
 7.63   0.7552    618.9800   1150.5148 -89.24     327.7346     0.784     0.500     227.9042  21.7612        203
 4.35   0.3014    606.3729    586.1169 -63.98     821.4851     1.229     1.096     227.9599  20.7635        204
 6.34   0.2468    979.1253    452.8247  46.82     1003.272     0.825     0.671     227.9599  20.5465        205
 3.50   0.0081   1508.0348    269.3838 -55.01     30765.15     1.794     1.703       228.09  16.8299        206
 3.82   0.0980   1571.4200     92.6815 -44.92     2525.334     1.343     1.259     227.9507  19.5442        207
 4.03   0.4268   1585.8164   1108.8448 -44.20       580.36     1.168     1.134     228.0621  21.1408        208
 4.28   0.0825   1567.4658     22.0305 -33.85     3001.505     1.447     1.283     227.9878  19.3567        209
 4.05   0.1490   1543.5164    654.6591 -29.60     1662.102     1.409     1.266     227.9878  19.9984        210
 5.29  99.0000   1562.1002    861.5002   5.66    -160.2317     1.291     1.137     227.8391  99.0000        211
 3.78   0.0635   1542.6946    135.1594 -40.42     3895.741     1.488     1.397     227.9135  19.0735        212
 6.38   0.3704   1566.7689    784.6503 -81.87     668.5164     1.578     1.227     228.0157  20.9872        213
 3.50   0.0044   1558.8809    487.7125 -44.60     56145.96     1.880     1.814     227.9785  16.1767        214
 3.50   0.0044   1564.5659    304.2808 -43.79     56874.67     1.890     1.806     227.9321  16.1627        215
 4.70   0.4121   1551.8231   1221.8469 -44.52     600.8968     0.803     0.675     228.0435  21.1030        216
 4.14   0.0121   1553.5095    682.2263 -31.95     20379.63     4.341     3.588     227.9135  17.2770        217
 7.35   0.2428   1532.9917    415.9659 -72.46     1019.891     0.800     0.798     228.0621  20.5286        218
 5.90   0.6726   1064.0072      7.0742 -23.41     333.1314     0.782     0.781     206.3077  21.7435        219
 7.88   0.2987   1520.0060     84.4936  89.00      828.548     0.806     0.500     227.9135  20.7542        220
 5.75   0.2450    981.7465    797.8428 -57.71     1010.674     1.244     1.063     228.0064  20.5385        221
 7.32  99.0000   1499.3314    844.3154 -45.78    -654.0291     0.569     0.338     228.0064  99.0000        222
 7.77   0.3579   1516.6619   1547.1537  61.19     691.6814     0.749     0.646     227.9599  20.9502        223
 3.50   0.0312   1515.7172    392.7155 -61.32     7929.642     1.601     1.561     227.9692  18.3019        224
 5.83   0.1899   1515.5969    483.5984 -26.59      1304.39     0.945     0.819       228.09  20.2615        225
 3.50   0.0133   1026.5923   1379.9623 -52.77      18580.5     1.772     1.694     228.0435  17.3774        226
 5.50  99.0000   1504.8645    723.3122 -37.54    -52.39293     1.147     1.061     228.0157  99.0000        227
 5.43   0.2205   1060.7614    726.9356  31.30     1122.721     1.270     1.097     227.9878  20.4243        228
 6.52   0.1644   1065.9205   1562.9261 -82.67     1506.133     1.335     0.770     227.9785  20.1053        229
 4.72   0.5242   1074.0288      6.5546 -39.16     421.3938     1.034     0.890     203.4131  21.4883        230
 4.62   0.5615   1066.4927   1597.0061   0.05      362.267     0.774     0.500     187.3043  21.6524        231
 8.68   0.4839   1067.6896    568.6803 -44.50     511.6338     0.561     0.341     227.9785  21.2776        232
 9.15   0.4625   1483.6051    575.1877 -18.10     535.5046     0.763     0.450     228.0714  21.2281        233
 3.50   0.0079   1080.7583    512.1453 -49.86     31457.41     1.786     1.735     228.0157  16.8057        234
 6.07   0.6184   1084.4833     42.9855  89.21     400.2732     0.813     0.702     227.9228  21.5441        235
 5.05   0.4776   1080.0181    330.0150 -51.63     518.5608     0.791     0.768     228.0621  21.2630        236
 3.98   0.2246   1096.1542   1526.4453 -71.82     1102.267     1.131     0.935     228.0064  20.4443        237
 3.75   0.0660   1436.1023    224.7933 -44.30     3751.113     1.460     1.384     227.9228  19.1146        238
 7.95   0.3292   1105.7139    678.9739  -0.29      752.064     0.743     0.682     227.9414  20.8594        239
 3.53   0.1054   1409.0533    308.3669 -18.44     2349.499     1.430     1.366      228.025  19.6226        240
 3.50   0.0396   1108.2046    427.9494 -44.18     6259.552     1.613     1.542      228.025  18.5586        241
 3.50   0.0248   1105.2900    751.8293 -46.25     9973.387     1.668     1.551     227.9228  18.0529        242
 6.47   0.4767   1115.0071    674.3222 -31.47     519.3553     0.994     0.835     227.9692  21.2613        243
 3.50   0.0018   1435.2311   1090.4395 -53.03     134836.4     2.026     1.924     228.0528  15.2255        244
 6.60   0.1488   1111.6033    479.0096  -3.10     1664.601     1.577     1.173     228.0621  19.9967        245
 5.11   0.1092   1120.8527    329.7652  62.39     2267.307     1.957     1.388     228.0157  19.6612        246
 5.63   0.0218   1360.3300   1135.1975  70.78     11346.86     5.755     4.374     228.0528  17.9128        247
 6.16   0.2713   1412.3901    350.3234  42.17     912.7036     1.027     0.888     227.9785  20.6492        248
 3.52   0.1246   1440.6613    619.1829  -9.50     1987.654     1.362     1.248     228.0157  19.8041        249
 5.34   0.2705   1407.3208    329.6469 -45.88     915.2537     0.968     0.884     227.9785  20.6461        250
 5.80   0.3986   1439.4858   1271.0208 -89.14     620.9688     0.823     0.690     227.9135  21.0673        251
 6.98   0.3598   1432.8917    340.8729  10.34     688.1105     0.978     0.694     227.9785  20.9559        252
 4.25   0.1379   1416.3516   1386.5266 -23.95     1795.687     1.316     1.243     227.9599  19.9144        253
 3.68   0.0332   1389.6260   1428.5151 -27.12     7466.438     1.585     1.545     227.9507  18.3672        254
 3.50   0.0143   1420.1692   1126.3665 -61.53     17277.18     1.857     1.681     228.0807  17.4563        255
 4.07   0.1096   1391.3157    713.2686  -9.03     2259.938     1.350     1.325     227.9971  19.6648        256
 6.79   0.3213   1371.3350   1215.6832  45.86     770.4343     0.571     0.337     227.9599  20.8332        257
 3.50   0.0003   1367.0562   1159.7576 -45.14       739833     3.211     2.966      228.025  13.3772        258
 7.00  99.0000   1389.5149    806.5027 -43.21    -56.18755     0.502     0.498     227.9692  99.0000        259
 3.50   0.0033   1394.2540    114.4834 -45.24     75836.65     1.953     1.851     227.9599  15.8503        260
 5.22   0.5448   1401.4977   1031.6376   6.13     454.2889     1.180     1.007     227.8856  21.4067        261
 3.50   0.1509   1393.1047   1038.7120  20.91     1640.601     1.266     1.229     227.9599  20.0125        262
 3.50   0.0318   1373.4517   1018.9463 -17.83     7787.957     1.672     1.591     227.9878  18.3214        263
 4.78   0.7090   1130.8622    219.3012 -25.20     349.1707     1.304     0.863     227.9599  21.6924        264
 3.50   0.0084   1320.9172    659.9871 -52.97      29367.5     1.836     1.712     227.9135  16.8803        265
 3.50   0.0083   1139.3254    148.1174 -38.19     29753.85     1.811     1.729     227.9785  16.8661        266
 5.99   1.0034   1331.2291    386.8348  -9.05     246.8431     1.056     0.828     228.0714  22.0689        267
 4.35   0.4144   1305.5399    892.8893   0.18       597.47     1.069     0.942     227.9599  21.1092        268
 3.50   0.0014   1299.2628    724.8812 -48.19     177679.6     2.070     1.947     227.9692  14.9259        269
 5.01   0.4837   1130.0918    547.4588 -64.96     511.7576     1.034     0.943     227.9414  21.2773        270
 6.86  99.0000   1131.6010    358.8142  18.02    -164.3549     0.738     0.455     228.0528  99.0000        271
 8.72   1.1606   1346.3232    605.3577 -43.64     213.3119     0.583     0.329     227.9599  22.2275        272
 9.20   0.6676   1353.5139    152.4898 -44.68     370.8018     0.504     0.496     227.9599  21.6271        273
 6.50   0.1535   1331.3510   1139.5618 -59.70     1613.582     1.357     1.247     228.0064  20.0305        274
 4.15   0.0672   1330.7760    655.8708 -45.62     3683.461     1.565     1.528     227.9785  19.1344        275
 5.05   0.2757   1333.6184    107.5224 -17.45     897.8289     1.198     1.016     227.9507  20.6670        276
 4.13   0.0392   1173.3842    758.0570 -65.24     6312.163     3.170     2.878     228.0343  18.5496        277
 4.17   0.4781   1293.8528    412.8324 -17.21     517.9659     1.131     1.068     228.0343  21.2642        278
 5.03   0.0766   1308.5431   1036.2317 -36.76     3233.132     2.270     1.591     228.0157  19.2759        279
 4.68  99.0000   1262.9794    855.2561  87.84    -86.67101     0.710     0.686      228.025  99.0000        280
 5.66   0.3978   1320.0740    264.1943 -52.70     622.5525     1.147     0.799     228.0157  21.0646        281
 3.90   0.0205   1273.6370    609.9811 -58.41     12068.57     3.634     2.216     228.0714  17.8459        282
 3.67   0.0683   1308.3613    669.6719 -48.24     3624.323     1.406     1.362     227.9785  19.1519        283
 5.03   0.0839   1294.4031    742.3216  79.16     2952.177     1.239     1.126     227.9599  19.3746        284
 7.14   0.9508   1300.3899     53.7704 -17.75     260.4582     0.739     0.454     228.0343  22.0107        285
 6.76   3.1036   1182.4879    176.4805   0.36     79.77243     1.075     0.500     227.9785  23.2954        286
 3.50   0.0376   1292.1992    762.0816 -25.90     6581.001     1.990     1.577     227.9785  18.5043        287
 6.89   0.7207   1273.9921    698.4935 -88.69     343.4209     0.802     0.500     227.9042  21.7104        288
 3.96   0.0623   1278.9128   1331.4569 -45.43     3973.674     1.497     1.463     227.9785  19.0520        289
 5.31   0.2041   1260.2441    432.5118  62.07     1213.312     1.629     1.386     227.9785  20.3401        290
 3.94   0.1235   1235.1912    304.8459 -29.89     2005.221     1.403     1.365     228.0343  19.7946        291
 3.50   0.0992   1266.2544    807.8636 -48.42     2496.662     1.416     1.364     227.9692  19.5566        292
 6.01   0.2077   1230.4740    599.1655  35.64     1192.086     1.216     1.051     227.9785  20.3592        293
 3.50   0.0002   1222.2419    995.1810 -28.78      1279811     5.954     4.911     228.0621  12.7821        294
 3.50   0.6110   1181.6586    549.3268 -43.44     405.1792     1.018     0.859     227.9692  21.5309        295
 5.57   0.6015   1229.0801   1153.9688 -36.12     411.5318     0.793     0.778     227.9228  21.5140        296
 5.22   0.5125   1162.5021    887.8837 -19.56     483.0788     1.088     0.972     227.9785  21.3400        297
 3.96   1.1575   1243.2858    672.6531 -82.05     213.8695     1.189     1.041     227.9599  22.2246        298
 3.50   0.0183   1215.4316    513.0142 -30.60     13516.35     1.681     1.609     228.0343  17.7229        299
 6.63   0.4931   1183.7528    673.2309 -44.37     502.1859     0.745     0.558     228.0157  21.2978        300
 4.17   0.0205   1211.5728   1278.9662  82.73     12108.04     5.306     3.235     228.0621  17.8423        301
 3.83   0.0269   1219.6571   1194.9600 -37.74     9188.816     1.731     1.594     228.0064  18.1418        302
 4.00   0.1371   1238.0083   1553.4725  -2.36     1806.409     1.264     1.133     227.9971  19.9080        303
 5.66   0.1745   1195.8529    124.2404  88.52      1419.39     1.613     1.388     228.0157  20.1697        304
 5.52   0.1658   1203.9291   1075.4823  40.99     1493.288     1.506     1.331     227.9692  20.1146        305
 6.89   0.1299   1213.3812   1429.8090 -31.43      1905.97     1.452     1.337     228.0435  19.8497        306
 3.50   0.2059   1208.5078    838.8335 -62.97     1201.894     1.289     1.174     227.9135  20.3503        307
 4.05   0.2407   1202.6908    339.1082 -89.17     1028.605     1.293     1.270     227.9507  20.5194        308
 3.50   0.0293   1039.5018    525.4022 -60.22     8455.695     1.596     1.551     227.9228  18.2321        309
 6.22   0.4102   1238.3855     48.2105  21.07     603.7234     1.018     0.791     228.0435  21.0979        310
 4.89   0.3024   1201.6527   1442.0063 -88.47     818.9272     1.418     1.185      228.025  20.7669        311
 3.52   0.0450   1158.6979    236.4656 -37.68     5499.631     1.528     1.476     227.9692  18.6992        312
 3.50   0.0052   1165.9800   1299.8152 -70.20     47446.48     1.867     1.821     228.0528  16.3595        313
 4.30   0.1835   1152.0620     99.4303  -5.67      1349.36     1.285     1.129     227.9878  20.2247        314
 7.14   1.4581   1134.7693    607.3962 -71.72     169.8251     0.742     0.453     228.0157  22.4750        315
 5.58   0.2530   1154.4492   1353.0486  79.65     978.5784     1.339     1.184     227.9785  20.5735        316
 3.50   0.0004   1152.4425    693.8433 -41.38     684985.8     3.304     3.051     227.9785  13.4608        317
 3.50   0.0165   1130.7413    183.5695 -54.21     14990.64     1.705     1.617      228.025  17.6104        318
 6.22   0.7785   1095.1503   1136.1940 -48.24     318.0753     0.820     0.670      228.025  21.7937        319
 3.50   0.0087   1095.7329    778.1555 -53.05     28601.71     1.820     1.714     227.9599  16.9090        320
 6.80   0.3683   1091.6282    468.2690 -65.29     672.2308     1.371     0.725     227.9878  20.9812        321
 3.50   0.0959   1090.0703    642.4240 -44.86     2582.279     1.479     1.336     227.9785  19.5200        322
 4.70   0.1946   1030.8552    302.6511  62.66     1272.345     1.959     1.479     227.9692  20.2885        323
 3.50   0.0271   1082.6013   1148.1779 -73.45     9135.658     1.664     1.599      228.025  18.1481        324
 5.69   0.1199   1072.8003   1219.0272 -60.86     2064.252     1.699     1.401     227.9971  19.7631        325
 3.50   0.0158   1010.5993    813.6566 -43.67     15674.28     1.725     1.671     228.0064  17.5620        326
 3.50   0.0006   1024.3812     50.1974 -45.52     444183.5     2.230     2.080     228.0528  13.9311        327
 3.50   0.0061   1041.0414    633.0447 -52.89     40274.06     1.833     1.768     227.9971  16.5374        328
 7.84   1.3436   1039.1428    121.5545 -41.69     184.2816     1.104     0.483     227.9878  22.3863        329
 3.55   0.1176   1012.0233    344.6380 -60.50     2105.234     1.374     1.242     228.0621  19.7417        330
 5.73   0.1678    987.4119    453.9875 -77.42     1476.373     1.406     1.215     228.0528  20.1270        331
 3.93   0.1006   1002.4827    542.4571 -77.39     2461.893     1.448     1.302     227.9785  19.5718        332
 3.50   0.2080   1002.4807   1555.2145 -80.17     1190.091     1.290     1.092     227.9135  20.3610        333
 3.50   0.0088    985.6537    558.4514 -53.70     28012.51     1.809     1.717     227.9785  16.9316        334
