#   1 NUMBER                 Running object number                                     
#   2 FLUX_BEST              Best of FLUX_AUTO and FLUX_ISOCOR                          [count]
#   3 FLUXERR_BEST           RMS error for BEST flux                                    [count]
#   4 MAG_BEST               Best of MAG_AUTO and MAG_ISOCOR                            [mag]
#   5 MAGERR_BEST            RMS error for MAG_BEST                                     [mag]
#   6 KRON_RADIUS            Kron apertures in units of A or B                         
#   7 X_IMAGE                Object position along x                                    [pixel]
#   8 Y_IMAGE                Object position along y                                    [pixel]
#   9 A_IMAGE                Profile RMS along major axis                               [pixel]
#  10 B_IMAGE                Profile RMS along minor axis                               [pixel]
#  11 THETA_IMAGE            Position angle (CCW/x)                                     [deg]
         1     546123.1     196.0455  13.7116   0.0004  3.50   1107.5068    180.8025     5.305     4.911 -40.47
         2     40204.24     193.8792  16.5441   0.0052  3.82     63.7599     52.3876     4.889     4.352  12.65
         3     5485.978     105.8842  18.7066   0.0210  3.50    985.1421     15.3538     4.152     1.817  89.51
         4     3773.076     59.10995  19.1130   0.0170  3.50     91.4487     17.1948     1.575     1.489  25.82
         5     9648.225     61.65346  18.0937   0.0069  3.50   1445.7733     13.1969     1.619     1.607  19.73
         6     372.0013     49.57125  21.6284   0.1447  4.82    384.7507     16.1952     1.040     0.832 -82.74
         7     186.8147     39.67636  22.3763   0.2306  5.14   1183.2109      8.6855     0.736     0.647  55.80
         8     329.5613     51.09687  21.7599   0.1684  7.33    145.8148      2.7085     0.875     0.617 -33.09
         9     908.4659     69.55448  20.6590   0.0831  4.92    367.3350     23.7039     1.400     1.202  33.24
        10      45172.5     73.31686  16.4176   0.0018  3.50   1078.4691     58.4521     2.004     1.825  60.08
        11     324.7379     62.88665  21.7759   0.2103  6.44    383.1711     22.8706     0.903     0.881  64.69
        12     663.5773     85.63603  21.0001   0.1402  5.73   1110.2778     32.3587     1.909     0.974  61.87
        13     353.8103     69.00026  21.6829   0.2118  8.26    327.5183     31.9549     0.834     0.695  -0.16
        14     114.0623     24.78562  22.9119   0.2360  4.55   1488.5518     29.5238     0.502     0.495  53.04
        15     226.6095     30.35607  22.1666   0.1455  3.50   1521.2543     36.4591     0.962     0.704  88.55
        16     281.9377     35.59564  21.9294   0.1371  3.50   1170.7378     37.5751     1.001     0.831  74.65
        17     240.5214     33.93911  22.1019   0.1532  3.50    915.3849     41.3325     0.925     0.818 -71.33
        18     221.2571     49.57125  22.1925   0.2433  5.84   1435.5917     48.2341     0.939     0.620 -73.14
        19     212.8651     41.10231  22.2345   0.2097  7.43    439.4663     44.4676     0.505     0.493  45.21
        20     43587.69     71.46044  16.4564   0.0018  3.50    537.7455     79.1055     1.905     1.803  -7.17
        21     143.9149     33.93911  22.6595   0.2561  7.23    265.6837     48.9591     0.919     0.209 -62.34
        22     70.31348     15.17803  23.4372   0.2344  3.50    881.6414     49.6731     0.585     0.328 -43.79
        23     1579.123     57.12804  20.0587   0.0393  3.68    128.1347     74.2168     1.453     1.362  16.43
        24     636.7502     83.36411  21.0449   0.1422  6.56    421.5560     81.3308     1.444     0.928  14.70
        25     64389.45     72.26189  16.0327   0.0012  3.50    789.1948    120.5688     1.945     1.857 -13.45
        26     2341.362     62.27311  19.6311   0.0289  3.77     56.2917     95.9662     1.594     1.443 -62.18
        27     933.5336     101.2501  20.6295   0.1178  5.83    377.3141     89.3102     1.743     1.423 -38.38
        28     284.7437     49.18245  21.9186   0.1876  6.46    495.9820     90.6747     0.749     0.659  -2.31
        29     579.8691     74.09824  21.1465   0.1388  5.12    453.5879     96.8231     1.647     1.056  -1.99
        30     152.5197     32.19747  22.5965   0.2293  6.92   1075.6849     94.6633     0.571     0.337 -46.02
        31     125.1852     29.71692  22.8109   0.2578  4.63    864.3951    107.2189     0.764     0.438  69.69
        32     157.0369      40.1573  22.5648   0.2777  5.47     67.0152    116.1657     0.956     0.468 -37.07
        33     158.5779      40.1573  22.5542   0.2750  5.68    415.9769    114.5088     0.785     0.500  -1.48
        34     129.3289     32.19747  22.7755   0.2704  5.45    154.0176    117.2253     0.680     0.418  -0.79
        35     278513.1     83.36411  14.4427   0.0003  3.50    318.1504    192.6793     2.258     2.100 -35.77
        36     36152.73     69.27792  16.6594   0.0021  3.50   1468.3263    160.8442     1.817     1.772  32.56
        37     300.2009     52.94212  21.8613   0.1915  6.94    418.0578    130.3049     0.737     0.671  11.62
        38     158.9691     41.10231  22.5515   0.2808  7.48    885.4984    128.5032     0.511     0.489 -44.99
        39      43791.3     242.6904  16.4513   0.0060  3.99    403.7292    233.9326     6.189     4.943 -45.90
        40      209.677     41.10231  22.2509   0.2129  5.80    353.8374    145.8660     0.758     0.568  45.43
        41     8441.844     65.28319  18.2387   0.0084  3.50    877.3600    169.0738     1.811     1.626  -0.21
        42     613.4713     57.79623  21.0853   0.1023  4.75   1445.8378    163.4660     1.138     1.080 -23.66
        43     1391.812     83.82343  20.1958   0.0654  5.14    325.4989    170.6974     1.576     1.409   6.39
        44     562.8336     57.79623  21.1788   0.1115  4.76    104.6417    165.8175     1.220     0.975 -54.54
        45     139.6981     25.54844  22.6918   0.1986  3.50   1369.1718    167.7950     0.744     0.561 -42.16
        46     528.4033     79.35271  21.2474   0.1631  7.61    575.4573    178.5435     1.052     0.847  44.31
        47     382.5141     50.59229  21.5982   0.1436  6.94   1354.6979    185.9523     1.294     0.938 -52.81
        48     1098.164     75.12743  20.4531   0.0743  5.21   1350.5454    191.0763     1.353     1.260 -13.49
        49     4917.457     147.2869  18.8254   0.0325  4.94    827.9134    209.4249     3.727     1.958  -4.21
        50     1607.352     56.45195  20.0395   0.0381  3.68    549.2784    205.5385     1.463     1.317   9.24
        51     193.1285     38.19721  22.3402   0.2148  7.89    267.3212    194.3135     0.563     0.340 -44.60
        52     849.0942      60.3951  20.7324   0.0772  3.93    349.9734    207.8263     1.598     1.246  26.86
        53     1613.578     55.42234  20.0353   0.0373  3.64   1306.1472    210.7312     1.424     1.333  14.08
        54     4470.749     167.6469  18.9288   0.0407  4.96    562.1378    228.9519     3.267     2.880  -2.68
        55     261.8525     46.78184  22.0096   0.1940  5.51    250.6948    202.2209     0.900     0.662  19.01
        56     533.9904      70.9211  21.2359   0.1442  6.42    684.6512    209.4440     1.070     0.953  51.31
        57     1893.685     52.94212  19.8615   0.0304  3.50   1226.1467    222.4275     1.444     1.306  26.90
        58     679.2919     55.76765  20.9746   0.0892  4.29    774.8510    221.1967     1.228     1.136   3.07
        59     120201.3     76.14271  15.3550   0.0007  3.50    997.4428    258.4975     2.053     1.906   8.11
        60     655.1876      70.9211  21.0139   0.1176  5.01    345.9449    221.7230     1.363     1.228  26.84
        61     82542.18     75.38253  15.7631   0.0010  3.50     67.5865    265.1008     2.031     1.879  -2.07
        62     322.6312     62.27311  21.7830   0.2096  6.91    548.3456    228.2284     0.891     0.762  10.53
        63      1329.28     89.36584  20.2457   0.0730  5.02    113.3172    243.4180     1.880     1.407 -81.86
        64     558.6559       56.791  21.1869   0.1104  4.47    838.9177    237.7224     1.282     1.044 -36.64
        65     3607.082     103.3147  19.1619   0.0311  4.47    612.7912    254.3776     2.549     1.747 -27.80
        66     116.9178     30.35607  22.8851   0.2820  5.78   1479.5089    238.9854     0.806     0.310 -58.19
        67     223.0266     46.36966  22.1839   0.2258  8.68    211.9850    236.4917     0.785     0.318  32.53
        68     582.5846     73.31686  21.1414   0.1367  5.63   1372.9886    250.5946     1.452     0.974  82.89
        69     285.6122     39.18951  21.9153   0.1490  3.50   1352.6121    251.9105     1.263     0.828  63.62
        70     178.8199     44.68292  22.4237   0.2714  8.20   1414.5033    246.5130     0.500     0.500 -14.22
        71     467.9304      67.3102  21.3793   0.1562  6.75    107.1974    249.7955     1.090     0.760   0.96
        72     340530.4     81.02852  14.2244   0.0003  3.50    439.4229    311.3768     2.197     2.011 -11.23
        73     19163.92     64.98846  17.3486   0.0037  3.50   1486.4139    286.0472     1.721     1.687  20.36
        74     413.6603     62.58063  21.5132   0.1643  5.21   1273.5546    269.0456     1.127     1.072 -82.61
        75     4218.448     58.12744  18.9919   0.0150  3.50   1522.3615    280.2949     1.530     1.486 -76.25
        76     114.9498     26.28912  22.9035   0.2484  5.23    124.9794    264.6647     0.933     0.206 -27.82
        77     95.14685     32.19747  23.1088   0.3675  6.40    498.6624    266.6922     0.568     0.338 -43.54
        78     1690.795     77.14463  19.9846   0.0496  4.20    514.9908    288.7805     1.756     1.589 -14.61
        79     56538.66     73.57825  16.1739   0.0014  3.50    905.4695    317.4287     1.963     1.845   6.52
        80     13861.84     65.28319  17.7002   0.0051  3.50    201.7938    302.2776     1.793     1.624   5.00
        81     1824.766     54.72517  19.9018   0.0326  3.60   1327.4825    292.5781     1.402     1.337 -87.06
        82     964.2258     99.52901  20.5943   0.1121  5.47   1413.6121    296.1295     2.195     1.240 -41.93
        83     687.5172     71.19128  20.9616   0.1125  5.55   1475.8376    291.9290     1.237     1.093  39.84
        84     290038.9     79.59428  14.3986   0.0003  3.50   1345.8704    350.0038     2.086     2.025 -19.86
        85     241.7073     52.57825  22.0966   0.2362  7.27    248.8008    291.1805     0.774     0.562 -43.98
        86     301774.8     80.79125  14.3556   0.0003  3.50    890.8081    350.2067     2.179     2.020  -6.41
        87     638.3452     61.34129  21.0421   0.1044  4.52    563.6510    301.0902     1.452     1.072  -1.22
        88     9485.509     64.39494  18.1121   0.0074  3.50    697.3223    320.8659     1.781     1.588   8.30
        89     652.7054     102.0057  21.0180   0.1697  7.00     85.1877    307.6422     1.381     1.280  78.06
        90     790.8848     93.35827  20.8095   0.1282  5.00    641.2813    321.3483     2.141     1.350 -73.63
        91     137.1034     32.19747  22.7122   0.2550  6.88    985.3195    308.6666     0.571     0.337  45.65
        92     1999.146      100.106  19.8027   0.0544  5.26    595.5634    326.4825     1.814     1.652 -29.83
        93     6363.469     69.27792  18.5455   0.0118  3.57    867.2098    345.2463     1.943     1.597  28.37
        94     365.5731      40.1573  21.6473   0.1193  3.50   1546.4867    327.5649     1.222     0.869 -35.62
        95     230.2668     42.92996  22.1492   0.2025  8.77    955.6740    323.3325     0.574     0.335  45.29
        96     452.1748     42.92996  21.4165   0.1031  3.50     93.1862    331.3411     1.261     0.963   8.23
        97     415.1925     66.73734  21.5092   0.1746  6.43   1440.4208    333.3611     1.109     0.793 -34.47
        98     78.97998     15.17803  23.3110   0.2087  3.50   1065.7026    330.6610     0.564     0.340 -47.15
        99     5211.833     75.89017  18.7623   0.0158  3.68    431.8577    354.7003     1.904     1.842  13.96
       100       168.87     43.81521  22.4859   0.2818  7.70    806.4822    338.0227     0.798     0.313 -57.94
       101     897.9579     72.79129  20.6716   0.0880  5.33     54.6703    349.2087     1.385     1.116   4.47
       102     9700.637     65.28319  18.0878   0.0073  3.50    761.0951    366.9506     1.772     1.586  -6.58
       103      1778.39     55.07486  19.9297   0.0336  3.50   1500.3344    359.5818     1.473     1.391 -71.04
       104     186.1956     44.68292  22.3799   0.2606  5.80     41.9935    347.7420     0.720     0.674  -4.03
       105     3652.609     62.27311  19.1483   0.0185  3.73    442.8058    366.3561     1.602     1.454   4.60
       106     447.4893     44.25119  21.4278   0.1074  3.50   1034.1500    359.3577     1.323     1.001 -21.18
       107      173.005     40.63255  22.4596   0.2551  6.41   1398.6235    354.7786     0.737     0.450  72.11
       108     261.8021     43.37484  22.0098   0.1799  4.42    532.9302    358.7258     1.019     0.746  76.30
       109        47839     72.52707  16.3553   0.0016  3.50    231.4159    394.2700     1.962     1.804  -4.06
       110     292.7111     54.37324  21.8887   0.2017  6.27   1415.1569    362.2943     0.933     0.670 -72.09
       111     646.6682      81.2651  21.0281   0.1365  6.14    754.2100    374.6461     2.046     0.724  44.39
       112     438.2311     63.19119  21.4505   0.1566  5.37   1084.1969    372.1427     1.314     0.879 -23.39
       113     159.5457     39.67636  22.5476   0.2701  6.26    210.5549    367.7691     0.759     0.445  68.93
       114     440.2574     48.39548  21.4455   0.1194  3.98    992.3721    371.5146     1.245     0.959  -4.57
       115     349.6959     61.02752  21.6956   0.1895  7.55     71.1674    368.8334     0.828     0.663  42.45
       116     175.7637     31.59559  22.4425   0.1952  4.40     87.1614    374.6644     1.078     0.409  13.72
       117     335.1373     55.42234  21.7417   0.1796  7.17    126.0072    379.0144     0.891     0.532 -44.75
       118     283.4891     40.63255  21.9234   0.1557  7.92      1.3709    380.1916     0.742     0.451  72.90
       119     6327.511     58.45678  18.5517   0.0100  3.50   1461.0891    395.5740     1.559     1.486  29.89
       120     7605.775     62.88665  18.3519   0.0090  3.50    354.5716    397.1368     1.748     1.526  -6.81
       121     1576.045     52.94212  20.0609   0.0365  3.61   1088.7413    392.3617     1.436     1.278  -2.02
       122     43546.66     71.46044  16.4574   0.0018  3.50    433.3101    418.5695     1.959     1.787   7.46
       123     20994.75      67.3102  17.2495   0.0035  3.50    837.4326    414.4074     1.842     1.679  17.19
       124     904.1604     103.8707  20.6642   0.1248  7.17    627.1854    396.1248     1.977     0.878  61.98
       125     268.5321     51.84285  21.9823   0.2097  7.23   1195.8057    387.8064     0.750     0.561  48.48
       126     373.0857     42.48042  21.6253   0.1237  3.50    977.5923    395.1255     1.235     0.985  76.25
       127     536.4603     77.14463  21.2309   0.1562  6.22    527.0042    401.9259     1.332     0.945  43.86
       128     258.0996     43.81521  22.0253   0.1844  6.26      1.3831    409.7713     1.567     0.375  78.27
       129     943.3199     88.28519  20.6181   0.1016  4.87    159.2099    420.2654     1.807     1.526  48.92
       130     116.5297     21.46498  22.8887   0.2000  3.72    282.5084    406.4822     0.508     0.492  44.57
       131     136117.4     76.14271  15.2200   0.0006  3.50    807.5850    459.8504     2.069     1.899   4.53
       132      3633.46     58.45678  19.1540   0.0175  3.50    926.3993    422.7900     1.637     1.440  15.32
       133     15360.99     66.73734  17.5887   0.0047  3.50    251.9980    437.0163     1.841     1.648  10.22
       134     807.6401     106.0654  20.7867   0.1426  6.94    135.1587    420.5904     1.978     0.991  11.87
       135     1259.977     55.07486  20.3039   0.0475  3.83   1421.9464    431.5284     1.412     1.251  63.69
       136     147.3162     35.05217  22.6342   0.2584  6.81   1580.4958    418.4487     0.505     0.492 -39.12
       137     322.1772     47.99715  21.7845   0.1618  8.80    774.9987    418.5029     0.801     0.312 -31.96
       138     367.4962     55.76765  21.6416   0.1648  5.29   1178.8044    425.3546     1.015     0.913  39.01
       139      502.964     67.59481  21.3009   0.1460  5.34    151.4437    433.0443     1.320     0.996   9.94
       140      193.552     48.79055  22.3378   0.2738  7.10    299.9872    425.5018     0.780     0.500   1.75
       141     198.9874      47.5955  22.3077   0.2598  8.64   1063.9739    423.0000     0.846     0.289   0.00
       142     7853.761     198.6719  18.3171   0.0275  4.79    850.5317    466.5239     7.483     1.917  22.22
       143     4809.342     61.34129  18.8496   0.0139  3.50     21.2809    449.5338     1.697     1.494   8.03
       144     294.6029     53.66245  21.8817   0.1978  8.48    720.1899    430.3995     0.757     0.446  19.42
       145      522.545     48.39548  21.2595   0.1006  3.83    305.9849    438.8527     1.359     0.978   1.90
       146     127.7274     29.71692  22.7891   0.2527  5.22    405.9717    431.7938     0.703     0.404  -1.01
       147     871.3309     77.14463  20.7043   0.0962  5.11    122.2891    444.4103     1.510     1.262  -4.61
       148     727.4508     55.07486  20.9003   0.0822  3.50    884.0020    446.2090     1.746     1.188   0.27
       149     5415.762     62.58063  18.7206   0.0125  3.50     34.5201    457.0356     1.689     1.526  -4.32
       150     273.1968     51.47121  21.9636   0.2046  6.16    655.0332    442.9377     0.791     0.785 -82.53
       151     257.0295     48.39548  22.0298   0.2045  8.01    174.9936    442.2404     0.691     0.427   0.30
       152     336.1641     51.47121  21.7384   0.1663  5.22   1533.1263    451.2191     1.155     0.715  78.27
       153       167.58     42.92996  22.4942   0.2782  7.12   1224.2380    452.1957     0.870     0.343  71.61
       154     1698.865     64.69238  19.9794   0.0414  4.27    468.6153    462.6931     1.524     1.259  11.59
       155     561.9293     45.95378  21.1806   0.0888  3.50   1096.2539    459.7192     1.317     1.075  13.04
       156     484.5128      60.3951  21.3415   0.1354  5.09    724.7584    460.2853     1.301     0.898 -40.63
       157     2133.762     52.94212  19.7319   0.0269  3.50    734.9095    470.8533     1.505     1.270  28.83
       158     1548.491     64.09612  20.0800   0.0450  4.16    254.2337    470.3935     1.561     1.282   8.56
       159     2734.422     56.11084  19.4626   0.0223  3.50    923.0995    476.6703     1.543     1.358  19.37
       160     177.3383     29.71692  22.4328   0.1820  3.50   1132.7686    470.0435     1.272     0.474  69.41
       161     975.0861      67.3102  20.5822   0.0750  4.82   1276.8671    476.7152     1.364     1.171 -18.70
       162     250.9514     51.84285  22.0558   0.2244  5.32   1168.8453    474.4258     1.064     0.731  48.21
       163     631.9685     72.26189  21.0530   0.1242  4.70    839.7307    487.9083     2.284     0.863 -83.34
       164      20643.1     187.1273  17.2678   0.0098  4.28    518.7302    531.8464     4.283     3.686  14.63
       165     2368.292     119.3512  19.6187   0.0547  4.33   1186.7635    494.4384     2.990     2.116 -29.96
       166     1166.486     59.75597  20.3876   0.0556  4.18   1070.7542    482.6162     1.421     1.210  25.27
       167     342.7653     64.39494  21.7173   0.2040  6.34   1309.4797    479.6473     1.070     0.795  56.30
       168     2493.466      122.526  19.5628   0.0534  5.21     83.0719    495.2841     2.303     1.986  35.55
       169     249.1158     49.57125  22.0638   0.2161  5.69    682.3663    477.8947     0.918     0.682  20.87
       170     11331.55     64.39494  17.9191   0.0062  3.50   1302.3654    510.9912     1.745     1.609  16.68
       171     1031.012      65.8687  20.5216   0.0694  3.50    763.0489    503.3101     1.836     1.597  -6.47
       172     3146.571     108.3928  19.3102   0.0374  4.00   1461.3184    513.9519     4.149     1.477  23.85
       173     558.9391     45.11052  21.1864   0.0876  3.74    863.8738    500.8243     1.129     1.052 -19.89
       174     357.0978     57.12804  21.6728   0.1737  6.27    366.1871    496.9661     0.910     0.761   1.56
       175     323.0616     42.92996  21.7816   0.1443  4.36   1310.3738    500.0148     1.021     0.787  -2.47
       176     1211.947     50.70907  20.3461   0.0454  3.80   1310.3311    511.7829     1.424     1.294 -48.92
       177     601.9784       56.791  21.1058   0.1025  3.87    165.1438    508.7841     1.752     1.031   0.63
       178     642.6211     62.58063  21.0349   0.1058  4.79   1179.1204    512.3732     1.215     1.155  54.88
       179     594.2747     78.86737  21.1198   0.1441  6.31    641.8876    517.8915     1.187     1.090 -54.90
       180     226.5807     42.02607  22.1667   0.2014  4.63   1519.0157    516.7952     0.901     0.737  88.09
       181     212.7793      47.5955  22.2350   0.2429  5.87    853.4379    519.2685     1.396     0.386   9.33
       182     312666.3     79.11041  14.3171   0.0003  3.50   1315.9449    586.4362     2.094     2.009 -12.81
       183     1625.539     54.72517  20.0273   0.0366  3.50    999.9120    538.8229     1.491     1.346 -15.84
       184     365.1285     64.09612  21.6487   0.1906  5.52    404.8532    534.8416     1.429     0.786  28.92
       185     556541.6     84.28024  13.6910   0.0002  3.50    483.1907    630.0933     2.297     2.113  -5.65
       186     2264.473     55.42234  19.6674   0.0266  3.50   1041.6580    557.6415     1.527     1.367   7.73
       187     6997.161     62.58063  18.4425   0.0097  3.50   1242.8595    571.1049     1.663     1.604  24.23
       188     175.5698     31.59559  22.4437   0.1954  3.57    778.5010    554.2460     1.127     0.530 -20.14
       189     1586.221     83.59409  20.0539   0.0572  3.88   1447.7970    569.9079     2.286     1.693   7.26
       190      1693.64     92.32437  19.9827   0.0592  4.90     46.1277    570.4611     1.991     1.464  46.37
       191     5695.014     140.7553  18.6660   0.0268  3.98    782.8542    595.4496     3.404     3.059 -88.99
       192     9210.279      65.8687  18.1441   0.0078  3.50    319.1685    581.1600     1.815     1.598   3.62
       193     395.9669     58.45678  21.5606   0.1603  5.23    139.3934    563.6876     1.125     0.937 -29.93
       194     9372.486      65.5766  18.1251   0.0076  3.50    144.8776    579.7925     1.801     1.587  -2.06
       195     199.2821     42.92996  22.3061   0.2339  6.17    905.5062    561.9982     0.805     0.500 -88.22
       196     1144.188     72.79129  20.4085   0.0691  5.28   1337.0359    573.3960     1.293     1.198 -72.01
       197     140.7997     35.05217  22.6833   0.2704  7.42    632.3124    566.6772     0.563     0.340  45.54
       198      505.384     74.35687  21.2957   0.1598  6.48   1001.9897    574.5244     1.143     0.954  -4.52
       199     681.5781     52.57825  20.9710   0.0838  3.87     75.3989    583.5945     1.480     1.073 -20.37
       200     163.8925     32.19747  22.5184   0.2133  4.90   1173.0760    583.5082     0.785     0.499   2.20
       201     140.9822     37.69127  22.6819   0.2903  5.25   1138.7960    586.8328     0.744     0.568  41.93
       202      2488.65     61.96406  19.5649   0.0270  3.95    542.3907   1000.4837     1.519     1.387  -6.27
       203     766.1521     59.10995  20.8440   0.0838  3.81    654.7425   1596.3757     1.530     1.432 -72.28
       204     206.6641     36.13094  22.2666   0.1899  7.01     18.7726   1599.6355     0.741     0.450  16.89
       205     215.7869     30.35607  22.2197   0.1528  3.50    566.4948   1589.9609     1.001     0.662  30.36
       206     1266.233     52.21185  20.2985   0.0448  3.59   1108.5558   1583.5129     1.395     1.200  44.94
       207     599.2672     82.43782  21.1107   0.1494  7.13   1413.9773   1580.2595     1.318     0.830  72.52
       208      3236.33     55.76765  19.2796   0.0187  3.50    134.7687   1540.8383     1.476     1.426 -24.90
       209      502.453     74.61461  21.3020   0.1613  6.81    415.2019   1531.9071     1.226     0.822 -71.89
       210     766.0818      93.1524  20.8441   0.1321  6.86   1546.4598   1513.5629     1.532     0.988  43.28
       211     390.4161     36.13094  21.5760   0.1005  3.50    483.3916   1513.4045     1.013     0.938 -42.60
       212     899.1138     98.55987  20.6702   0.1190  5.28    326.1106    887.4893     2.144     1.323   4.89
       213     108720.4     73.31686  15.4640   0.0007  3.50   1592.5017    878.7048     1.922     1.850  12.31
       214     784.8691     44.68292  20.8178   0.0618  3.50   1500.0233    884.1630     1.253     1.106  35.27
       215     536.4387     79.11041  21.2310   0.1602  6.22    338.9892    884.0157     1.526     0.866  44.71
       216     1058.673     87.19116  20.4929   0.0894  5.11   1176.9954    876.3629     1.753     1.402   2.36
       217     827.1338      70.9211  20.7608   0.0931  4.94    961.1818    876.4781     1.464     1.172  26.37
       218     208.8737     29.06372  22.2551   0.1511  3.50    541.3325    875.3210     0.974     0.648  83.54
       219     2549.647     77.14463  19.5386   0.0329  4.19   1103.5979    867.9683     1.832     1.588 -33.50
       220     1237.232     100.4888  20.3237   0.0882  5.50    939.9140    866.7964     1.845     1.503  32.84
       221     269975.8     77.14463  14.4765   0.0003  3.50   1224.4624    857.9001     2.067     1.955  -3.56
       222     263.4456     38.69654  22.0031   0.1595  4.60    643.0482    868.0561     0.778     0.775  32.73
       223     143.4542     39.18951  22.6630   0.2967  8.09    454.6768    865.2985     0.557     0.343  43.61
       224      131.281     35.05217  22.7593   0.2900  6.28   1479.5310    863.4764     0.517     0.480 -45.31
       225     779.4213     45.95378  20.8253   0.0640  3.50   1157.3041    858.1290     1.285     1.122   7.22
       226     124.4666     35.05217  22.8172   0.3058  5.93   1554.4988    858.5292     0.502     0.498 -38.89
       227     810.2262     77.64075  20.7833   0.1041  5.78   1339.4663    857.0644     1.303     1.187  19.39
       228     871.1052     92.32437  20.7046   0.1151  5.47   1304.9567    884.6011     2.153     1.112  73.17
       229     132.1941     32.19747  22.7518   0.2645  6.86    544.6743    854.3339     0.574     0.335  45.37
       230     672.5562     72.26189  20.9855   0.1167  5.03   1206.3131    843.1203     1.370     1.279  63.91
       231     886.5049     49.57125  20.6856   0.0607  3.50   1106.2837    842.0743     1.457     1.144  36.79
       232     788.1979     76.39442  20.8132   0.1053  5.73   1063.6129    843.2930     1.372     1.071  -4.79
       233     1739.893      81.2651  19.9535   0.0507  4.70   1246.9686    836.3198     1.715     1.469 -32.77
       234     214.9301     42.02607  22.2240   0.2123  8.69    991.6487    837.3306     0.584     0.329  44.19
       235     1357.311     60.71213  20.2231   0.0486  4.06    298.5144    835.5950     1.466     1.264   8.22
       236     244.2766     46.78184  22.0851   0.2080  7.42   1520.6128    835.2322     0.734     0.456 -72.53
       237     259.4535     39.18951  22.0196   0.1640  4.18    818.8601    834.7298     0.941     0.828  45.52
       238     81.15076     21.46498  23.2815   0.2873  3.50    515.4869    833.5014     0.504     0.496 -45.68
       239     6252.268     61.65346  18.5647   0.0107  3.50    654.2111    821.7526     1.659     1.550   8.57
       240     132.1549     33.93911  22.7521   0.2789  7.28    331.3069    820.3486     0.572     0.336 -46.92
       241     342.5817      63.7959  21.7179   0.2022  6.72   1398.5271    817.9912     1.458     0.528  73.64
       242     146.9565     35.05217  22.6368   0.2590  5.52    433.5970    816.1639     0.738     0.450 -70.57
       243     158.1101     42.48042  22.5574   0.2918  6.11    877.0160    815.0000     1.438     0.289   0.00
       244     5886.219     59.43384  18.6302   0.0110  3.50   1378.7039    801.5432     1.588     1.536  37.58
       245     2720.191     60.07639  19.4683   0.0240  3.50     40.9899    799.9274     1.668     1.468 -12.74
       246     16912.84     78.37903  17.4842   0.0050  3.50    695.5123    797.2754     2.383     1.755 -89.44
       247     141.7814     37.17844  22.6757   0.2848  5.72   1349.1840    784.6148     0.751     0.451 -17.62
       248     4186.599     170.5982  19.0001   0.0443  5.84   1427.4971    772.6189     3.253     2.162 -87.03
       249     1251.124     57.79623  20.3115   0.0502  3.80    391.7878    765.6317     1.504     1.272 -21.06
       250     269.5422      60.3951  21.9782   0.2433  5.59    139.6528    766.9703     1.079     0.875 -31.23
       251     150.6123     40.63255  22.6101   0.2930  7.17    567.4836    762.9985     0.822     0.304  58.69
       252     95.91479      28.3955  23.1001   0.3215  5.93   1019.6373    753.3007     0.575     0.333  42.26
       253     282.2791     54.72517  21.9281   0.2105  6.56   1080.2655    750.3806     0.984     0.593 -67.52
       254     206.1453      40.1573  22.2693   0.2116  8.53    195.3360    751.3360     0.580     0.332 -45.00
       255     118.3755      32.7883  22.8716   0.3008  7.05   1442.6703    746.6947     0.563     0.340 -43.73
       256     1507.181     60.71213  20.1094   0.0437  4.00    556.1754    741.6133     1.459     1.346   4.94
       257     382884.7     84.96084  14.0971   0.0002  3.50    404.7235    723.0963     2.310     2.082 -22.63
       258     490.0837     48.79055  21.3291   0.1081  3.90   1158.1339    736.6849     1.187     1.087  26.95
       259     664.7904     49.18245  20.9981   0.0803  3.50    649.7816    734.6859     1.495     1.094  -8.06
       260     65035.89     73.31686  16.0219   0.0012  3.50    848.3856    725.3584     1.983     1.823   7.55
       261      143.319     24.78562  22.6640   0.1878  3.50   1544.2115    726.9903     0.807     0.495 -33.44
       262     1004.088     49.18245  20.5504   0.0532  3.50   1178.3372    725.8890     1.367     1.174  29.29
       263     668.6008     78.62358  20.9919   0.1277  6.17   1394.8793    720.0422     1.200     1.109  57.46
       264     1284.265     51.84285  20.2831   0.0438  3.53    808.4193    714.5092     1.352     1.298   2.27
       265     1216.476     49.95702  20.3420   0.0446  3.50   1163.7511    707.5997     1.353     1.264   7.78
       266     161.4071      47.5955  22.5350   0.3202  7.45    538.3743    706.8065     0.764     0.442 -71.63
       267     1782.188      81.2651  19.9274   0.0495  4.36   1338.9893    702.6929     1.793     1.592 -51.05
       268     2212.952     55.76765  19.6924   0.0274  3.50    952.4020    701.4094     1.483     1.423  -7.15
       269     708.5626     85.41156  20.9288   0.1309  6.09    581.9954    697.8321     2.000     0.816   3.96
       270      644.048     56.98472  21.0325   0.0961  4.30   1213.8993    689.6995     1.500     1.169  59.05
       271     394.7142     42.43459  21.5641   0.1168  3.92   1213.4946    685.0089     1.064     0.947  80.71
       272     414.5968     64.98846  21.5107   0.1702  6.80    316.3271    691.0162     1.017     0.739  16.84
       273     3666.261     195.9476  19.1442   0.0580  6.50    471.9468    681.7518     2.914     2.598  89.44
       274     312.7086      53.3035  21.8169   0.1851  5.71    130.6565    686.7047     0.891     0.827 -16.89
       275     1963.334     60.07639  19.8223   0.0332  3.77    644.2499    684.3580     1.536     1.386  10.75
       276     2026.228     111.7073  19.7881   0.0599  5.46    543.6492    680.0992     2.117     1.628 -68.96
       277     441.6158     71.46044  21.4422   0.1757  6.88   1221.2678    667.7279     1.270     0.696 -61.48
       278     130.6404     35.59564  22.7646   0.2959  5.53   1180.2338    665.6055     0.732     0.455 -18.03
       279     556.7181     43.81521  21.1907   0.0855  3.50    870.7210    653.3447     1.207     1.122  22.09
       280     64328.79     72.52707  16.0338   0.0012  3.50   1464.3446    646.7708     1.920     1.826  19.48
       281     306.2875     33.93911  21.8395   0.1203  3.50   1221.7224   1549.3451     0.978     0.824 -44.74
       282     9873.224      63.7959  18.0686   0.0070  3.50    536.7704    638.6250     1.771     1.577   4.55
       283     321.3087     51.84285  21.7875   0.1752  5.12    276.5275    640.4909     1.085     0.738  44.08
       284     681.0295     48.39548  20.9719   0.0772  3.50    806.0956    629.2963     1.437     1.111  -0.34
       285     406.0747      65.8687  21.5333   0.1762  5.83    652.8699    644.5950     1.258     0.839  16.69
       286      919.041     49.18245  20.6464   0.0581  3.50   1581.4034    621.8457     1.325     1.248  59.20
       287     349.1179     61.34129  21.6974   0.1908  5.43   1151.2251    616.8323     1.134     0.928  59.39
       288     235.6237      32.7883  22.1242   0.1511  3.50    945.8057    608.6844     1.080     0.659  72.44
       289     959.6957     48.79055  20.5994   0.0552  3.50    586.3810    604.2041     1.391     1.151   3.51
       290     199.6398     29.06372  22.3042   0.1581  3.73   1256.5342   1565.2236     0.973     0.487  82.53
       291     7350.609     60.71213  18.3890   0.0090  3.50    392.3686   1513.7866     1.584     1.557   0.31
       292     532.9979     68.44154  21.2380   0.1395  5.46    373.5282   1593.5349     1.347     0.980  89.56
       293     1993.592     55.42234  19.8057   0.0302  3.50     21.6714   1565.6357     1.512     1.388  -3.37
       294     172.2878     37.17844  22.4641   0.2344  5.77   1069.4106   1584.2544     0.716     0.457  70.77
       295     304.6461     54.72517  21.8453   0.1951  6.89   1384.2509   1591.9668     1.155     0.450  33.49
       296     56574.29     70.10433  16.1732   0.0013  3.50    303.8709   1562.6835     1.871     1.794   2.08
       297     261.4456     50.71977  22.0113   0.2107  7.27   1490.8132   1573.1724     0.739     0.564 -46.60
       298     882.7177     63.19119  20.6902   0.0777  4.22    863.2323   1544.6085     1.529     1.237  50.22
       299     2200.783     51.84285  19.6983   0.0256  3.50    654.3959   1541.4359     1.480     1.284  -5.13
       300     23233.48     155.7752  17.1395   0.0073  3.50    682.0305   1551.3933     4.365     3.775 -26.37
       301     971.8376      47.5955  20.5858   0.0532  3.50    860.9190   1559.7860     1.257     1.196 -58.52
       302     1455.035     52.21185  20.1476   0.0390  3.68     92.1997   1569.6466     1.370     1.251 -18.94
       303     1129.462     55.42234  20.4226   0.0533  3.50    784.3132   1564.6084     1.653     1.285 -70.10
       304     56205.51     71.19128  16.1803   0.0014  3.50    487.3637   1556.9069     1.892     1.819   8.53
       305     129.9897     33.36867  22.7700   0.2788  6.45   1512.9548   1550.0000     0.861     0.289   0.00
       306     154.7966     37.69127  22.5804   0.2644  6.08   1565.7761   1561.0076     0.698     0.417  89.69
       307     135.1646     35.05217  22.7276   0.2816  6.15    263.5334   1537.5518     0.502     0.494 -39.05
       308     676.3068      70.9211  20.9794   0.1139  5.49   1001.2759    910.8828     1.340     1.043 -10.81
       309     366.6438      67.3102  21.6442   0.1994  5.27   1428.1411   1534.7400     1.337     0.990 -40.58
       310     6109.096      60.3951  18.5898   0.0107  3.51    302.6584    899.4885     1.667     1.481   6.87
       311     211.0594      47.5955  22.2438   0.2449  7.33   1100.7787   1517.4172     0.771     0.443 -20.03
       312     260.6515     33.36867  22.0146   0.1390  3.50     84.8643   1517.9752     1.143     0.681  22.98
       313     188.2728     40.63255  22.3678   0.2344  7.19     14.4723   1521.9784     0.794     0.314  57.85
       314     260.1565     35.05217  22.0167   0.1463  3.50    844.1691   1496.9832     1.119     0.722  -9.33
       315     665.4722     82.90226  20.9970   0.1353  6.62   1425.7739    892.6292     1.291     1.012  45.46
       316     7563.877     202.8791  18.3579   0.0291  4.75    224.4313    878.4860     7.310     2.055  88.70
       317     30505.18      67.3102  16.8438   0.0024  3.50    269.0006   1506.2036     1.790     1.714 -12.53
       318     205.6942     27.71117  22.2717   0.1463  3.50     77.8319   1486.9354     0.832     0.657 -49.41
       319     1560.782     101.8173  20.0714   0.0708  5.11    538.3524    894.9561     1.912     1.726  14.08
       320     273.4825       56.791  21.9625   0.2255  7.14    987.9648    896.2786     0.740     0.677 -16.81
       321     142.2319     21.46498  22.6723   0.1639  4.11   1079.5054    907.4599     0.501     0.497 -33.66
       322     586.8536     77.64075  21.1335   0.1437  6.50   1314.9668    902.6793     1.545     0.768  85.36
       323     725.6842     46.36966  20.9029   0.0694  3.50    723.1560   1503.1562     1.263     1.171  78.95
       324     797.1838     46.36966  20.8009   0.0632  3.50    838.3603    911.4485     1.285     1.159  39.81
       325     397331.3     129.2363  14.0569   0.0004  3.50    183.7184    881.1320     3.531     3.210 -17.80
       326     277.6658      57.4631  21.9460   0.2247  7.17    572.7041   1483.7509     1.213     0.449  85.96
       327     1051.395     55.07486  20.5004   0.0569  4.07   1322.4321    926.9052     1.278     1.211   9.87
       328     618.0906     87.63042  21.0772   0.1540  7.37    998.7042   1473.2372     1.264     0.946 -15.28
       329     95.77979     31.59559  23.1016   0.3582  6.31    734.6927    903.6495     0.573     0.335 -46.96
       330     269.7198     44.68292  21.9775   0.1799  8.09    575.5043   1480.4886     0.504     0.496  44.56
       331     364.8571     46.36966  21.6495   0.1380  4.62   1270.8408   1437.3823     0.991     0.847  86.39
       332     181.9741     47.19042  22.4048   0.2816  7.71   1128.9950   1465.7528     0.700     0.431  -0.23
       333     14291.07      63.7959  17.6671   0.0048  3.50   1178.3445    928.3278     1.687     1.619   9.19
       334     156.5811     38.19721  22.5679   0.2649  7.04     45.9930    924.4929     0.767     0.324  33.21
       335     449.6519     38.69654  21.4226   0.0935  3.50    329.3842   1405.3381     1.120     0.909  24.80
       336     2129.677     69.00026  19.7340   0.0352  4.34   1067.0264    937.9125     1.464     1.419  32.29
       337     111.5874     35.59564  22.9357   0.3464  6.82    726.0226    940.0000     0.857     0.289   0.00
       338     652.4685     80.55328  21.0184   0.1341  6.78    516.1055    937.3108     1.377     0.828  32.96
       339     698.2139     72.52707  20.9448   0.1128  4.86    654.2190    949.5503     1.549     1.193  63.57
       340     189.7124     45.11052  22.3595   0.2582  5.90    647.3112   1437.4187     0.982     0.476  -8.80
       341     440.9816     55.07486  21.4437   0.1356  5.30    445.0434    946.8583     1.166     0.741   1.90
       342     241.7876     49.18245  22.0962   0.2209  8.30    132.0015    946.2512     0.678     0.434  -0.08
       343     99.72852     33.93911  23.0577   0.3696  7.20     87.6717   1448.6608     0.578     0.333 -45.47
       344     137808.5     74.61461  15.2066   0.0006  3.50   1090.2324   1432.9703     1.991     1.908   0.31
       345     159.7971     35.05217  22.5459   0.2382  6.58    267.4831    948.4963     0.505     0.494 -45.71
       346     76325.15     70.64989  15.8481   0.0010  3.50    114.1711   1392.4930     1.892     1.837   2.53
       347     128.1001     35.05217  22.7859   0.2972  6.94    391.5019   1452.4630     0.502     0.497  37.38
       348     3444.249      57.4631  19.2120   0.0181  3.50    224.4329   1434.2791     1.542     1.494  -2.47
       349     941.1045     64.69238  20.6207   0.0747  4.59    797.9230    979.5256     1.382     1.193 -82.58
       350     220.0422     45.11052  22.1985   0.2226  5.04   1347.1246   1434.9100     0.957     0.687 -12.86
       351     206.4093     44.68292  22.2680   0.2351  7.54     61.2406    952.0077     0.701     0.427 -89.66
       352     2425.138     52.57825  19.5929   0.0235  3.50    618.8336   1438.6829     1.429     1.335  -2.78
       353     353.1288     54.01902  21.6849   0.1661  5.30    416.2845    964.0222     1.147     0.762   0.38
       354     7017.543     60.71213  18.4393   0.0094  3.50   1428.2762   1387.1427     1.609     1.533  -6.08
       355     932.8481     61.96406  20.6303   0.0721  4.11   1031.0402   1399.2919     1.473     1.292  26.72
       356     460.0679     60.71213  21.3977   0.1433  4.69    340.6069   1431.0420     1.721     0.833  25.83
       357     1466.331     53.66245  20.1392   0.0397  3.64   1386.3597   1413.7847     1.365     1.297 -51.81
       358     121.7543     35.05217  22.8411   0.3127  6.33   1029.5052    953.5342     0.504     0.495 -41.19
       359     17328.33     68.72147  17.4579   0.0043  3.50   1126.1416   1417.9104     1.859     1.730 -66.45
       360     1691.638     60.07639  19.9840   0.0386  4.05   1038.5302   1390.9829     1.391     1.323 -62.12
       361     215.9186     46.36966  22.2191   0.2332  5.14   1487.5507    980.2189     0.984     0.702  -0.78
       362     516.4369     75.12743  21.2722   0.1580  6.66    452.0928    977.4117     1.097     0.955  74.59
       363     2233.755     51.47121  19.6822   0.0250  3.50    307.9359   1407.1616     1.339     1.331 -72.44
       364     529.6731     44.68292  21.2448   0.0916  3.50    349.5081   1410.0396     1.369     1.027  36.08
       365     117.3583     36.65843  22.8810   0.3392  7.61   1363.3004   1402.6686     0.562     0.341  46.64
       366     13574.53     191.4263  17.7230   0.0153  5.10   1135.1514   1358.5911     5.697     4.625  74.93
       367     323.8311     42.92996  21.7790   0.1440  4.34   1596.5851   1064.1340     0.992     0.861  15.48
       368     348347.6     112.0505  14.1997   0.0003  3.50   1159.4381   1364.9259     2.974     2.847 -50.80
       369     2374.614     56.11084  19.6158   0.0257  3.56    713.0481   1389.1337     1.496     1.366  12.66
       370     441.1189     42.02607  21.4434   0.1035  3.50      6.5746   1062.4746     1.130     0.990  36.74
       371      282.452      53.3035  21.9274   0.2049  7.49    569.7603   1065.2341     0.925     0.450 -44.87
       372     92.38416     26.28912  23.1408   0.3090  5.43   1475.6754   1063.6809     0.567     0.339 -44.73
       373     419.4818     47.99715  21.4980   0.1243  4.01    806.2859   1387.4335     1.186     0.965  -3.11
       374      77.7793     29.06372  23.3276   0.4058  6.08   1584.3380   1387.3101     0.569     0.338 -43.66
       375      8120.58     61.65346  18.2808   0.0082  3.50   1018.7941   1371.2097     1.637     1.588 -24.36
       376     250.1167     41.56675  22.0594   0.1805  4.25    318.5918   1378.3931     1.111     0.728 -26.82
       377     523.9976     42.92996  21.2565   0.0890  3.50      6.6476   1072.3970     1.266     0.977 -12.20
       378     442.4166      60.3951  21.4402   0.1483  4.90     42.7823   1082.8191     1.202     1.042 -41.51
       379     100.0215     29.71692  23.0545   0.3227  6.14    474.6741   1351.3342     0.575     0.335  45.37
       380     437.9169     55.07486  21.4513   0.1366  4.40    329.8063   1078.0201     1.261     1.068 -32.29
       381     185.6288     42.48042  22.3832   0.2485  4.79     52.1566   1079.6680     0.956     0.674  68.66
       382     348.5986     60.07639  21.6990   0.1872  6.59   1215.4215   1369.2180     0.970     0.718  -1.68
       383     1102.377     66.73734  20.4490   0.0657  4.94    742.1796   1292.2568     1.374     1.125  18.61
       384     2900.312     55.42234  19.3987   0.0208  3.50    642.3666   1088.1907     1.505     1.397   1.56
       385     2343.644     112.0505  19.6301   0.0519  5.29   1218.9595   1070.7594     2.060     1.787 -76.78
       386     739.9753     48.39548  20.8817   0.0710  3.85    412.4313   1291.8519     1.250     1.051 -16.39
       387     896.0669     95.99431  20.6739   0.1163  5.49    678.1635   1104.4949     1.887     1.343  30.28
       388     10086.41     63.49427  18.0454   0.0068  3.50    751.7085   1103.3607     1.691     1.583   6.21
       389     128.6989     33.36867  22.7808   0.2816  5.32    573.7831   1305.3979     0.752     0.449 -18.80
       390     802.3821     77.88761  20.7938   0.1054  4.68    468.1808   1089.7869     2.061     1.122 -66.59
       391     1079.869      96.9891  20.4714   0.0975  5.81   1139.3118   1328.9382     1.698     1.369 -67.13
       392     466.3486     79.11041  21.3830   0.1842  7.10    151.0393   1350.9673     1.195     0.833 -70.78
       393     6621.497      63.7959  18.5024   0.0105  3.50    427.7849   1106.4558     1.675     1.619   3.26
       394      293.972     58.78427  21.8840   0.2172  7.58    604.6937   1345.0083     0.741     0.672  89.70
       395     578.4263     58.78427  21.1492   0.1104  4.56    386.4966   1329.3369     1.274     1.056  -1.75
       396     28502.77     67.59481  16.9176   0.0026  3.50    659.7620   1318.9108     1.819     1.699   1.26
       397     2609.223      60.3951  19.5135   0.0251  3.77    669.5140   1306.3063     1.521     1.401  24.42
       398     2666.516     93.56367  19.4899   0.0381  4.03   1035.9504   1306.4060     2.526     1.758 -32.08
       399     779.8809     45.95378  20.8247   0.0640  3.50    107.2309   1331.7883     1.255     1.143 -21.94
       400     113.1135     32.19747  22.9210   0.3091  6.74    989.6658   1311.6663     0.578     0.333 -44.98
       401     218.1923     48.79055  22.2077   0.2428  6.38    769.6744   1144.0275     0.742     0.673  83.76
       402     181419.9     76.89538  14.9081   0.0005  3.50    724.6708   1297.2642     2.052     1.940  -6.50
       403     278.0045     34.50013  21.9447   0.1348  3.50    176.0954   1181.1243     1.127     0.718  10.75
       404      3157.29     53.57551  19.3065   0.0184  3.50    655.6528   1328.7194     1.544     1.453 -29.23
       405     640.6233     43.37484  21.0383   0.0735  3.50    892.7018   1303.4418     1.174     1.043 -46.56
       406     525.7758     63.49427  21.2528   0.1311  5.01    263.6410   1318.1453     1.203     1.096  -9.28
       407     29604.35     69.00026  16.8764   0.0025  3.50    147.8255   1137.6332     1.819     1.766  13.31
       408     637.3663     69.00026  21.0438   0.1176  5.47    219.3282   1129.3582     1.454     0.911 -16.50
       409     260.4866      53.3035  22.0153   0.2222  6.32    546.0164   1289.5433     0.823     0.683  86.65
       410     463.0808     74.35687  21.3906   0.1744  5.77    661.6729   1139.7195     1.414     0.966 -20.50
       411     6687.312     70.10433  18.4917   0.0114  3.50    761.9095   1290.1145     2.084     1.576 -18.34
       412     3171.897     57.12804  19.3015   0.0196  3.50    807.7321   1264.1892     1.563     1.442  14.98
       413      12545.4     119.9929  17.8086   0.0104  3.50    609.8644   1271.5988     4.095     2.365 -57.73
       414     271.9105     33.93911  21.9687   0.1356  3.50     53.7935   1298.4053     1.001     0.781 -52.26
       415     642435.4     215.5423  13.5352   0.0004  3.50    995.0497   1220.3157     5.869     5.350 -29.08
       416     701.2474       56.791  20.9401   0.0880  3.59    598.8438   1228.4076     1.455     1.380   8.94
       417     251.1282     31.59559  22.0550   0.1366  3.50    854.8088   1260.9320     0.890     0.736  -1.83
       418     8997.296     67.02438  18.1695   0.0081  3.50   1194.8434   1217.5336     1.817     1.643  18.58
       419     82.73901     30.98203  23.2605   0.4067  5.01    343.2201   1276.6355     0.748     0.447 -17.22
       420     300070.7     118.0574  14.3617   0.0004  3.50    693.5473   1150.5725     3.230     2.963 -16.05
       421     3804.976     56.45195  19.1039   0.0161  3.50   1331.2343   1276.5774     1.475     1.444  36.48
       422     1444.065     50.33984  20.1558   0.0379  3.50    338.6378   1200.9242     1.383     1.234  59.60
       423     252.9585     32.19747  22.0472   0.1382  3.50    697.9058   1272.7793     1.024     0.657  29.79
       424     927.7263     72.52707  20.6362   0.0849  4.75   1353.3368   1152.2167     1.476     1.327 -87.94
       425     1621.427     54.01902  20.0300   0.0362  3.50   1553.2626   1235.3568     1.427     1.366 -34.23
       426      2004.41     109.8006  19.7998   0.0595  5.22    123.7317   1193.8207     2.017     1.799  67.85
       427     800.3199     44.68292  20.7966   0.0606  3.50    672.4705   1241.3962     1.317     1.025  13.82
       428     401.0116     40.63255  21.5469   0.1100  3.53     48.0830   1236.9100     1.176     1.011  48.65
       429     345.4396     35.05217  21.7089   0.1102  3.50   1153.4540   1227.2687     0.957     0.935  19.49
       430     1316.126     88.93516  20.2565   0.0734  4.38    432.3192   1258.3755     1.902     1.773   1.35
       431     2554.236     56.11084  19.5366   0.0239  3.50    304.4727   1233.3051     1.472     1.412  -0.43
       432     1114.708     54.37324  20.4369   0.0530  3.86   1555.3717    999.9985     1.322     1.250 -36.16
       433     139.1471     39.67636  22.6961   0.3097  6.26    215.6046   1261.1990     0.754     0.441 -69.80
       434     225.4436     47.19042  22.1722   0.2273  5.99   1415.6775   1209.0464     0.873     0.600  64.51
       435       1529.6     119.3512  20.0933   0.0847  5.52   1428.9896   1210.7572     2.258     1.721  71.68
       436      180.359     33.93911  22.4144   0.2044  4.67   1217.1223   1202.8684     0.764     0.570 -42.21
       437     14059.67     65.28319  17.6848   0.0050  3.50    512.8241   1213.5566     1.765     1.622   1.22
       438     1087.305     63.19119  20.4639   0.0631  3.50   1442.0104   1199.4136     1.979     1.370  70.31
       439     15449.65     64.69238  17.5825   0.0045  3.50    183.3287   1129.0735     1.745     1.663   8.60
       440     1502.419     50.71977  20.1128   0.0367  3.50    838.6290   1206.4138     1.419     1.247   8.74
       441      1611.61     79.35271  20.0366   0.0535  4.57   1075.5841   1201.9446     1.823     1.384  25.96
       442     444.0145     56.45195  21.4363   0.1381  4.54    549.1391   1179.9291     1.185     1.070  49.04
       443     1290.266     50.33984  20.2781   0.0424  3.50    271.8067   1182.8752     1.389     1.260 -57.97
       444     6882.325      132.319  18.4604   0.0209  3.57    757.6408   1171.4684     3.561     3.199 -53.38
       445     353.3578     50.71977  21.6842   0.1559  4.83    673.3273   1181.5228     0.961     0.945  10.01
       446     1306.102      53.3035  20.2648   0.0443  3.60     99.1641   1150.2494     1.409     1.284  44.81
       447     218.7089     39.18951  22.2051   0.1946  6.26   1599.5543   1165.7251     0.967     0.484 -82.16
       448     318.6338     55.42234  21.7966   0.1889  5.28    606.9894   1132.2048     1.220     0.733  -0.85
       449     47914.15     70.64989  16.3536   0.0016  3.50   1299.6521   1163.7928     1.868     1.813  -1.91
       450     5439.392     61.65346  18.7159   0.0123  3.50    236.1230   1156.9557     1.645     1.567   5.92
       451      600.804     55.07486  21.1079   0.0996  4.58    887.3908   1160.5538     1.282     0.952  -6.02
       452     14160.46     168.1043  17.6771   0.0129  3.50   1278.7617   1209.2909     5.707     3.335  83.19
       453     175.5015     41.10231  22.4441   0.2543  6.56    568.1872   1154.3998     0.749     0.449  19.14
       454     198.3116     38.69654  22.3114   0.2119  5.16   1052.9990   1194.3286     0.746     0.659  -0.73
       455      597.618     44.25119  21.1137   0.0804  3.50    547.0253   1128.0515     1.227     1.103 -78.94
       456     320.0989     61.02752  21.7916   0.2070  6.38    396.3960   1087.0878     1.026     0.751  50.28
       457     222.0297      45.5341  22.1888   0.2227  5.41    359.2154   1130.3535     0.910     0.640  16.98
       458     75.04285     31.59559  23.3665   0.4572  6.23    838.6746   1127.3470     0.580     0.332  45.90
       459     2315.092     101.8173  19.6434   0.0478  4.84    329.6084   1119.3715     2.332     1.576  57.83
       460     1645.003     120.7902  20.0144   0.0797  5.68    479.0043   1109.1113     2.091     1.776  31.99
       461     570.2297     69.00026  21.1647   0.1314  5.84    674.0977   1112.7843     1.122     1.035  72.95
       462     31858.33     68.44154  16.7967   0.0023  3.50    511.9223   1078.8845     1.844     1.739  -0.09
       463     1010.985     63.19119  20.5429   0.0679  4.49   1526.4425   1093.8942     1.363     1.188  -6.74
       464     257.9039     35.59564  22.0261   0.1499  3.50   1136.0365   1093.3427     1.045     0.797 -30.61
       465     28702.04     67.87823  16.9100   0.0026  3.50    778.0053   1093.7670     1.837     1.695  -5.97
       466      9265.97     62.58063  18.1376   0.0073  3.50   1148.0754   1080.4218     1.656     1.593 -17.12
       467     1321.217     83.59409  20.2523   0.0687  5.08    453.8517    985.2458     1.643     1.382 -42.40
       468     235.3265     49.95702  22.1256   0.2305  6.42   1453.5759   1084.8627     0.859     0.611  12.97
       469     1422.298     126.9885  20.1723   0.0970  6.13   1563.4491   1063.7783     2.298     1.535 -73.99
       470     94.96692     29.06372  23.1108   0.3324  5.98    268.3080   1017.6820     0.559     0.342  45.55
       471     152.9899     33.93911  22.5931   0.2409  5.34    233.2620    997.4180     0.719     0.461  18.58
       472     904.7445     76.64531  20.6635   0.0920  5.64    726.8434   1058.7687     1.364     1.127   5.31
       473     117.2208     39.67636  22.8823   0.3676  7.26    515.0000    981.9960     0.836     0.289  90.00
       474      28007.8     67.87823  16.9366   0.0026  3.50    558.2753    983.7862     1.847     1.685   0.92
       475     40340.74     69.55448  16.5404   0.0019  3.50    632.9376   1039.1467     1.901     1.752  -3.12
       476     455100.2     82.90226  13.9095   0.0002  3.50     49.9904   1022.7363     2.224     2.065 -21.28
       477     8350.639     64.09612  18.2505   0.0083  3.50    525.2273   1037.5930     1.774     1.584   2.99
       478     18605.15     66.73734  17.3807   0.0039  3.50   1379.9098   1024.3289     1.779     1.726  74.47
       479     234.2725     49.18245  22.1305   0.2280  7.59    466.5743   1039.7631     0.734     0.458  71.11
       480     803.5704     60.07639  20.7922   0.0812  4.50   1273.6456    998.4636     1.279     1.147  -0.95
       481     758.1152     100.4888  20.8554   0.1440  6.53    121.5779   1037.9006     1.781     1.110 -51.48
       482     1900.994     93.56367  19.8573   0.0535  4.11    302.4403   1029.4198     2.382     1.804  60.90
       483     403.7262     75.89017  21.5396   0.2041  7.84   1270.2164   1020.5706     1.209     0.650 -28.71
       484     152.4725     32.19747  22.5968   0.2293  6.85   1488.6985    999.6080     0.586     0.325 -48.35
       485     207.1831     29.06372  22.2639   0.1523  3.50    452.4649   1013.4269     0.983     0.585  45.38
       486     15843.41      65.5766  17.5552   0.0045  3.50    813.6062   1008.6145     1.799     1.618  -4.73
       487     2363.224     58.12744  19.6210   0.0267  3.72    344.5641   1010.2621     1.490     1.413   2.15
       488     198.2437     47.19042  22.3118   0.2585  6.56    267.5084   1009.6623     0.907     0.473   0.36
