#   1 KRON_RADIUS            Kron apertures in units of A or B                         
#   2 MAGERR_APER            RMS error vector for fixed aperture mag.                   [mag]
#   3 Y_IMAGE                Object position along y                                    [pixel]
#   4 X_IMAGE                Object position along x                                    [pixel]
#   5 THETA_IMAGE            Position angle (CCW/x)                                     [deg]
#   6 FLUX_APER              Flux vector within fixed circular aperture(s)              [count]
#   7 A_IMAGE                Profile RMS along major axis                               [pixel]
#   8 B_IMAGE                Profile RMS along minor axis                               [pixel]
#   9 FLUXERR_APER           RMS error vector for aperture flux(es)                     [count]
#  10 MAG_APER               Fixed aperture magnitude vector                            [mag]
#  11 NUMBER                 Running object number                                     
 3.91   0.0035     54.8359     63.6206   5.70     37653.87     4.244     3.878     121.4071  16.6105          1
 4.60   0.0236     18.0924    984.9158 -87.37     5585.389     3.614     1.863     121.3378  18.6824          2
 3.50   0.0265     19.5113     91.2549 -72.22      4964.44     1.594     1.593     121.3477  18.8103          3
 3.50   0.0130     16.2649   1445.6256   8.14     10174.21     1.900     1.836     121.3626  18.0312          4
 5.90   0.0943     26.1766    366.7931  41.30      1398.34     1.199     1.039     121.3725  20.1860          5
 3.50   0.0027     61.3922   1078.4001  53.38     48280.86     2.304     2.210     121.3922  16.3406          6
 8.15   0.5400     36.6805   1110.6476 -43.63     244.0423     0.579     0.332     121.3527  22.0813          7
 3.50   0.0028     81.5646    537.4186  -5.67      47218.6     2.265     2.196      121.412  16.3647          8
 4.29   0.0618     76.6530    128.1523  62.75      2131.15     1.363     1.274     121.3527  19.7285          9
 7.32   0.0904     91.8835    376.7336  47.53     1457.561     1.522     1.014     121.3626  20.1409         10
 3.50   0.0019    123.3811    789.0018  18.27     69559.66     2.331     2.287     121.3922  15.9441         11
 3.80   0.0414     98.2123     56.0647   7.64     3184.988     1.502     1.390     121.3873  19.2922         12
 8.42   0.1556     99.7136    453.1160  29.05     847.1797     0.877     0.602     121.3576  20.7301         13
 3.50   0.0034    163.8837   1468.2428  -1.35     39114.23     2.178     2.142     121.3428  16.5692         14
 3.89   0.0144    171.8251    877.2281 -60.67     9127.093     1.874     1.862     121.4219  18.1492         15
 6.38   0.1754    166.6909   1445.6654 -44.42     751.3552     1.193     0.978     121.3675  20.8604         16
 7.04   0.1471    168.0562    104.0515  43.30     896.1074     0.802     0.763     121.3378  20.6691         17
 6.01   0.1000    194.2116   1350.6384  35.21     1318.995     1.178     1.115     121.4071  20.2494         18
 5.50   0.0283    212.3613    827.3483 -10.23      4656.82     3.322     1.857     121.3774  18.8798         19
 5.10   0.0632    208.2482    549.0332  41.51     2086.281     1.470     1.426     121.3675  19.7516         20
 3.74   0.0758    213.8068   1306.0281  -6.24     1739.696     1.480     1.352     121.3725  19.9488         21
 8.05   0.1815    212.7351    684.5651 -81.02     726.0478     1.006     0.476     121.3626  20.8976         22
 6.28   0.0302    232.0212    561.7152 -32.67     4359.154     2.663     2.414     121.3181  18.9515         23
 3.50   0.0012    261.3156    997.3729 -30.47     106129.8     2.408     2.379     121.3378  15.4854         24
 3.79   0.0671    225.7272   1225.9865  40.87     1962.826     1.501     1.369     121.3527  19.8178         25
 5.84   0.1425    224.1498    774.5750 -67.76     925.0617     1.062     0.975     121.3922  20.6346         26
 3.50   0.0015    267.4340     67.6003  -3.52     88687.29     2.406     2.326     121.3922  15.6803         27
 6.66   0.0571    245.6855    113.1610  55.09     2307.626     1.408     1.359      121.328  19.6421         28
 5.49   0.0318    256.8878    612.8890 -21.14     4143.306     2.138     1.826     121.3527  19.0066         29
 7.21   0.2125    253.0288   1372.7051 -83.06     619.8096     0.748     0.667     121.3032  21.0694         30
 3.50   0.0062    289.0899   1486.3671   5.85     21286.71     2.042     1.994     121.3131  17.2297         31
 8.67   0.6567    272.3262   1273.6752  45.06     200.6901     0.571     0.337     121.3527  22.2937         32
 3.96   0.0305    283.4577   1522.1886  -9.24     4318.941     1.709     1.611     121.3972  18.9616         33
 3.66   0.0086    304.6035    201.7187  22.84     15380.25     2.002     1.971     121.3428  17.5826         34
 6.34   0.1111    294.8393   1475.4043 -83.91     1186.618     1.174     1.086     121.3873  20.3642         35
 6.99   0.1295    303.8516    563.3071  -6.02     1017.471     1.188     0.868     121.3428  20.5312         36
 3.67   0.0132    323.5391    697.1888   0.01      9977.98     1.954     1.903     121.3823  18.0524         37
 5.66   0.0579    328.9860    595.2855 -32.56     2276.495     1.686     1.502     121.3032  19.6568         38
 8.71   0.1281    322.4551    641.3331  83.50      1028.98     1.047     0.653     121.3378  20.5190         39
 6.42   0.2197    333.7484     93.6034  72.11     600.0919     0.729     0.457     121.3823  21.1045         40
 6.34   0.1260    351.4026     54.7957  49.73     1046.673     1.177     1.075     121.4071  20.5005         41
 4.09   0.0118    369.6225    761.0285  30.29     11150.11     1.926     1.859      121.412  17.9318         42
 5.27   0.0707    362.6790   1500.2339  23.19     1862.773     1.478     1.287      121.323  19.8746         43
 7.48   0.3462    361.9877   1033.6975  89.10     380.5204     0.748     0.672     121.2983  21.5991         44
 3.50   0.0025    396.6410    231.3549  -3.97     51885.68     2.269     2.209     121.3675  16.2624         45
 6.46   0.0680    381.5793      1.2468 -89.44     1421.514     1.458     0.431     89.03194  20.1681         46
 3.61   0.0194    398.5565   1461.1088   6.19     6796.652     1.824     1.753     121.3477  18.4693         47
 3.51   0.0154    399.5740    354.4665  11.07      8576.66     1.857     1.811     121.3626  18.2167         48
 4.40   0.0821    395.4062   1088.5165 -42.13      1605.49     1.368     1.351     121.3329  20.0360         49
 6.87   0.0458    414.2457      1.5116  89.08     2137.555     2.051     0.605     90.14379  19.7252         50
 3.54   0.0080    439.4572    252.0079  15.30     16580.36     2.046     1.982     121.3873  17.5010         51
 3.50   0.0009    462.6494    807.5643  -2.72     145651.2     2.413     2.373     121.3725  15.1417         52
 6.55   0.0973    422.0020    159.4453  47.83     1354.821     1.249     1.043     121.3873  20.2203         53
 8.19   0.0839    428.0000    432.9590   0.00     1570.449     1.914     0.289     121.3922  20.0599         54
 5.28   0.0993    434.3916   1421.9470  67.39     1328.041     1.278     1.212     121.3823  20.2420         55
 7.28   0.1423    435.2090    151.0122  87.99     926.2531     0.921     0.757     121.3922  20.6332         56
 4.30   0.0215    451.8022     21.2892 -13.17     6134.122     1.783     1.688      121.328  18.5806         57
 5.24   0.2599    441.5106    305.5054 -47.55     507.0082     1.097     0.860     121.3527  21.2875         58
 7.08   0.1143    446.8086    121.9766  76.56     1152.763     1.265     0.850     121.3774  20.3956         59
 5.53   0.0220    469.2504    850.3843  22.30     5989.862     6.051     1.798     121.3774  18.6065         60
 4.27   0.0201    459.3000     34.4887 -38.30     6545.267     1.786     1.703     121.3082  18.5102         61
 3.68   0.0704    465.2224    468.3899  58.66     1872.561     1.531     1.345     121.3823  19.8689         62
 6.18   0.5532    462.5251   1096.4546  -0.34     238.2226     0.950     0.878     121.3428  22.1075         63
 4.16   0.0598    473.5137    734.7785 -37.31     2202.631     1.491     1.486     121.3181  19.6926         64
 4.54   0.0669    473.0667    254.3101  10.96     1970.986     1.411     1.312     121.3675  19.8133         65
 4.13   0.0482    479.3898    922.8976 -76.62     2732.862     1.551     1.504     121.3032  19.4585         66
 5.48   0.1214    479.4025   1276.8832  78.52     1085.665     1.291     1.156     121.3428  20.4608         67
 3.89   0.1314    485.5703   1070.7393  13.09     1003.362     1.312     1.293     121.3626  20.5464         68
 6.37   0.0498    497.7063     82.9283  76.10     2644.758     2.034     1.669     121.3576  19.4940         69
 6.37   0.0600    496.9576   1186.8683  -0.60     2197.864     2.001     1.447     121.3527  19.6950         70
 4.68   0.0071    532.7955    518.6533  17.40     18667.97     3.820     2.359     121.3675  17.3723         71
 6.67   0.1079    505.7798    762.3797  56.45     1221.896     1.292     1.175     121.4021  20.3324         72
 5.69   0.2348    503.5764    863.4998  42.04     561.0699     1.090     0.853     121.3032  21.1775         73
 5.06   0.0416    516.7531   1460.9519  28.97     3165.135     3.097     1.405     121.3576  19.2990         74
 8.00   0.1621    511.2891    165.8905  69.19     812.7458     0.940     0.687     121.3477  20.7751         75
 5.20   0.1848    515.2175   1179.0568 -58.73     713.1981     1.165     1.046     121.3774  20.9170         76
 7.14   0.2606    520.9695    641.9778 -18.30     505.9292     0.804     0.793      121.412  21.2898         77
 3.91   0.0887    541.6566    999.7239  27.26     1485.457     1.340     1.316     121.3527  20.1203         78
 4.27   0.0629    560.4131   1041.6547  46.34     2095.447     1.556     1.405     121.3873  19.7468         79
 3.60   0.0130    582.1475    144.8843  -5.49     10165.36     1.965     1.861     121.3428  18.0322         80
 5.63   0.0948    573.0700   1447.9109  42.99     1389.504     1.706     1.423     121.3576  20.1929         81
 5.53   0.0695    572.8860     46.0232  46.67     1894.518     1.753     1.387      121.328  19.8563         82
 8.05   0.0906    566.0245    139.4997 -89.45     1453.362     0.796     0.500     121.3082  20.1441         83
 3.75   0.0131    583.7054    319.1115  11.87     10057.23     1.980     1.883     121.3477  18.0438         84
 5.07   0.0232    598.1216    782.4658 -42.25     5677.598     2.977     2.563     121.3576  18.6646         85
 5.69   0.2301    585.9943     75.7904   1.38     572.9965     1.094     0.961     121.4071  21.1546         86
 4.52   0.1714   1002.7000   1555.2938 -65.03     768.8159     1.321     1.199     121.3181  20.8354         87
 6.49   0.1913   1598.5640    654.0644  -8.13     532.9421     1.221     0.893     93.86779  21.2333         88
 7.08   0.3208   1596.1770    374.0028  36.31     347.4879     0.939     0.470     102.6436  21.6977         89
 3.95   0.0060   1553.8917    681.8878 -25.88     22079.56     4.246     3.738     121.3477  17.1900         90
 6.30   0.1654   1547.4857    863.5578  50.58     796.7911     1.619     0.904     121.3378  20.7966         91
 4.90   0.0575   1543.9369    654.2358   6.50     2292.547     1.519     1.499     121.3675  19.6492         92
 4.10   0.0396   1543.1434    134.8184  -2.18      3326.03     1.722     1.668     121.3774  19.2452         93
 3.50   0.0044    986.2239    558.3918   9.39      30092.7     2.222     2.152     121.3774  16.8538         94
 7.19   0.0674    987.8929    454.0612  47.40     1956.268     1.354     1.220     121.3477  19.8214         95
 6.27   0.1394    982.2548    798.0513 -14.06     945.1716     1.182     1.147     121.3477  20.6112         96
 8.11   0.2203    966.4951    416.5008 -44.59      598.071     0.501     0.499      121.328  21.1081         97
 8.05   0.2177    951.7571    654.6135 -60.71     605.6076     0.891     0.871     121.4169  21.0945         98
 7.48   0.4716    948.8289    444.8362  48.67     279.5589     0.765     0.571     121.4021  21.9338         99
 4.50   0.0799    940.5356   1066.9823  40.85     1649.933     1.443     1.317     121.3527  20.0063        100
 4.58   0.2097    929.8412   1322.2853  -2.33     628.3146     1.216     1.156     121.3378  21.0546        101
 0.00  99.0000    923.3920    806.9277  50.58    -553.6725     1.425     1.318     121.3626  99.0000        102
 5.90   0.2413    914.0108    838.2870  48.92     545.8873     1.221     0.954     121.3032  21.2072        103
 6.84  99.0000    913.8267   1001.1534 -42.74     -164.606     0.755     0.572     121.3774  99.0000        104
 3.85   0.0188    901.8207    302.6184  22.20     7023.706     1.873     1.752     121.3972  18.4336        105
 6.87   0.0774    897.2894    538.1764  59.92     1702.481     1.438     1.205     121.3181  19.9723        106
 3.50   0.0011    881.6221   1592.4481  67.55     115050.3     2.409     2.363     113.8575  15.3978        107
 7.87   0.1194    889.9263    325.6593  13.95     1103.844     1.040     0.756     121.3576  20.4427        108
 3.95   0.2595    887.2353   1500.0454 -21.96     507.9496     1.146     1.024     121.3774  21.2854        109
 6.69  99.0000    878.9768    960.7203  84.12    -74.06063     0.742     0.686     121.3329  99.0000        110
 4.50   0.0549    870.7982   1103.3259 -37.23     2402.048     1.808     1.697     121.3626  19.5985        111
 7.19   0.1738    869.4719    939.9760  27.11     758.3671     1.262     0.879     121.3626  20.8503        112
 6.53   0.2263    859.9742   1339.4485 -27.10     582.6349     1.052     0.652     121.3922  21.1365        113
 5.11   0.1683    844.6675   1106.2814  40.45     783.1357     1.387     1.144     121.3527  20.8154        114
 6.58 493.3332    846.0511   1063.9689  55.92    0.2671835     0.799     0.781     121.3725  29.4830        115
 4.25   0.0827    838.0631    298.7592  11.70     1594.253     1.429     1.284     121.3527  20.0436        116
 3.97   0.0200    824.3925    654.3007  39.36     6588.168     1.941     1.782     121.3131  18.5031        117
 3.50   0.0228    804.4160   1378.5784  37.19     5783.226     1.805     1.756     121.4021  18.6446        118
 3.52   0.0074    799.9092    695.5862  88.53     17765.68     2.612     2.031     121.3082  17.4260        119
 4.28   0.0428    802.0178     41.0746  -3.99     3080.839     1.569     1.545     121.3428  19.3283        120
 5.31   0.0550    775.1918   1427.2698 -83.33     2397.438     2.419     1.601     121.3675  19.6006        121
 4.44   0.0933    744.2474    556.2881 -31.78     1413.291     1.397     1.344     121.3576  20.1744        122
 6.28   0.7139    739.3663   1157.5819  19.13     184.6889     0.952     0.817      121.412  22.3839        123
 6.29   0.2201    737.0938    649.6064 -17.16     598.6408     1.024     0.741     121.3032  21.1071        124
 3.50   0.0019    727.9890    848.3469  30.25     69663.36     2.331     2.281     121.3823  15.9425        125
 5.18   0.1933    728.9253   1178.0844  29.13     681.7598     1.169     1.144     121.3527  20.9659        126
 5.18   0.1188    717.3147    808.4189  37.92     1108.745     1.354     1.341     121.3131  20.4379        127
 4.42   0.1336    710.4768   1163.6831 -16.88     986.7058     1.365     1.301     121.3527  20.5645        128
 4.89   0.1332    705.7908   1339.0316  -8.21      989.332     1.546     1.270     121.3873  20.5616        129
 3.50   0.0624    704.2485    952.4028  12.51     2113.767     1.571     1.512     121.3873  19.7374        130
 8.31   0.2065    700.3286    583.0038 -28.14     638.2427     0.915     0.210     121.3774  21.0375        131
 8.05   0.1485    692.9648   1213.7377  52.24     887.3201     1.106     0.898     121.3725  20.6798        132
 4.47   0.0611    687.0331    644.0609  20.86      2158.61     1.502     1.435     121.3725  19.7146        133
 7.94   0.4012    688.6811    130.6900 -45.48     328.5089     0.561     0.342     121.3477  21.7586        134
 3.50   0.0019    649.7230   1464.2874  21.53     68892.69     2.272     2.236     121.3626  15.9546        135
 6.56   0.3840    655.9941    870.9185 -47.36     343.1565     0.795     0.777     121.3428  21.7113        136
 6.11   0.9916    632.0373    806.2447 -86.58     132.9325     1.157     0.835     121.3774  22.7409        137
 5.17   0.1486    624.8940   1581.7050  15.03     886.5938     1.277     1.149     121.3378  20.6807        138
 4.63   0.1042   1571.6420     92.3991 -33.15      1265.45     1.405     1.395     121.3922  20.2944        139
 3.50   0.0022   1564.9075    303.8499   1.62     60283.39     2.397     2.301     121.3477  16.0995        140
 4.77   0.1320   1586.1060   1108.4545   8.38     998.4166     1.338     1.175     121.3428  20.5517        141
 4.51   0.0730   1568.0105     21.5621 -10.26     1805.045     1.635     1.482     121.4071  19.9088        142
 5.70   0.1200   1567.1278    784.2486 -71.12     1097.932     1.580     1.300     121.3428  20.4486        143
 3.50   0.0022   1559.3082    487.3337  -0.52     59855.75     2.405     2.348     121.3527  16.1072        144
 5.61   0.1556   1562.6472    861.1291 -64.74     846.7775     1.323     1.085     121.3428  20.7306        145
 8.80   1.6710   1552.5118   1221.5138 -45.16     78.86893     0.504     0.496     121.3527  23.3077        146
 3.50   0.0041   1508.4564    269.0314  -8.74     32485.49     2.289     2.208     121.3774  16.7708        147
 6.20   0.2440   1505.5391    722.9548  -2.20     540.1902     1.136     0.952     121.3477  21.2186        148
 3.61   0.0169   1516.2062    392.3196   7.20     7799.984     1.952     1.837     121.3428  18.3198        149
 3.76   0.0151   1039.9794    525.2744  20.33      8722.63     1.934     1.878     121.3527  18.1984        150
 8.36   0.6987   1515.6390    483.6766 -46.45     188.5803     0.584     0.328     121.3329  22.3613        151
 8.50   0.1095   1516.3275   1546.6509  44.13     1203.193     0.581     0.331     121.3378  20.3492        152
 7.26   0.2560   1080.6088    330.2124 -18.74     515.0367     0.779     0.442     121.3922  21.2704        153
 7.98   0.1675   1066.6189   1563.0844 -75.91     786.5401     1.032     0.756      121.323  20.8107        154
 5.58   0.3675   1096.8838   1526.4382  73.52     358.4622     1.164     0.970     121.3181  21.6639        155
 3.50   0.0039   1081.2822    511.9978   8.33     34101.35     2.241     2.185     121.3477  16.7181        156
 3.72   0.0187   1108.7340    427.8509   0.97     7029.919     1.948     1.821     121.3477  18.4326        157
 5.45   0.0533   1121.2549    329.2988  50.87     2470.603     2.177     1.617     121.3428  19.5680        158
 7.79   0.0853   1112.0398    479.4141  21.00      1546.16     1.531     0.997      121.412  20.0769        159
 6.66   0.1836   1131.3668    219.4127 -15.94     717.9614     0.960     0.831     121.3922  20.9097        160
 6.45   0.2438   1130.3435    547.3375  40.40     540.5652     1.013     0.881     121.3329  21.2179        161
 3.64   0.0179   1390.1692   1428.3566  41.15     7347.424     1.884     1.832     121.3675  18.3847        162
 8.44   0.2307   1412.2462    349.2423  18.58     571.2648     0.861     0.351     121.3725  21.1579        163
 5.47   0.0934   1152.5980     99.2354  -4.50     1411.747     1.405     1.367     121.3922  20.1756        164
 3.50   0.0041   1139.7585    147.8703   9.75     32105.94     2.286     2.171     121.3527  16.7835        165
 4.31   0.0527   1391.7516    712.9827 -44.00     2500.593     1.595     1.549     121.3972  19.5549        166
 3.50   0.0013   1436.6967   1089.2457  43.40     104865.2     2.430     1.699      121.328  15.4984        167
 4.04   0.0388   1436.6285    224.3655  28.12     3396.378     1.673     1.589     121.4021  19.2225        168
 5.56   0.0908   1416.6003   1386.4836  -0.22     1451.852     1.461     1.365     121.3428  20.1452        169
 4.43   0.0592   1441.1062    618.8238 -20.30     2223.598     1.615     1.484     121.3032  19.6824        170
 3.50   0.0016   1394.7075    114.2188   2.25     81884.85     2.472     2.394     121.3131  15.7670        171
 7.49  99.0000   1440.1949   1270.5834 -71.27    -112.3085     0.733     0.457     121.3972  99.0000        172
 5.81   0.5222   1407.6993    329.5453  31.50     252.3277     0.964     0.544     121.3378  22.0451        173
 4.43   0.0614   1409.5560    308.0889  -9.98     2145.416     1.604     1.462     121.3527  19.7212        174
 6.34   0.1459   1401.9415   1031.1353  11.70       903.09     1.204     0.962      121.328  20.6607        175
 3.79   0.0139   1220.1550   1194.6290  38.20     9448.588     1.967     1.950     121.3675  18.1116        176
 6.25   0.2108   1293.9000    412.5309 -74.51     625.1593     1.168     0.974      121.328  21.0600        177
 4.06   0.0330   1279.3646   1331.1614  77.38      3989.34     1.785     1.692     121.3725  19.0477        178
 4.94   0.0773   1393.6259   1038.4512  15.32     1705.064     1.422     1.295     121.3823  19.9706        179
 3.80   0.0150   1373.8936   1018.6611 -10.66     8775.752     1.968     1.882     121.3477  18.1918        180
 3.50   0.0040   1321.3024    659.7653  -1.56     32382.38     2.265     2.212     120.5838  16.7742        181
 8.18   0.4341   1331.5116    386.5117  45.00     303.6002     0.506     0.494     121.3576  21.8442        182
 6.39   0.0451   1294.8771    741.8698  -5.06     2920.988     1.537     1.263     121.3527  19.3862        183
 4.55   0.0350   1331.1057    655.6803 -21.16     3766.996     1.817     1.734     121.3527  19.1100        184
 4.51   0.1995   1333.9355    107.0683 -44.69     660.5723     1.254     1.161     121.3477  21.0002        185
 5.67   0.4816   1320.6471    264.0476 -73.10     273.6846     1.022     0.746     121.3576  21.9569        186
 5.23   0.0327   1308.7217    669.4375 -39.00     4024.406     1.744     1.591      121.323  19.0382        187
 3.50   0.0007   1299.6060    724.6490 -14.73     193650.9     2.599     2.544     121.3774  14.8325        188
 4.25   0.0101   1274.0593    609.7493 -56.98     13002.17     3.967     2.543     121.3428  17.7650        189
 6.65   0.2119   1306.0022    892.6536   0.15     622.0186     1.160     0.767     121.3774  21.0655        190
 3.83   0.0185   1292.6447    761.9482 -18.32     7135.404     2.242     1.819     121.3576  18.4165        191
 4.20   0.0430   1266.6572    807.6606  10.43     3064.798     1.701     1.612     121.3378  19.3340        192
 7.98   4.4236   1230.3131   1152.6772  44.50     29.79354     0.564     0.340     121.3576  24.3647        193
 7.30   0.1381   1231.1614    599.4545 -12.39     954.3248     1.056     0.904     121.3675  20.6008        194
 6.60   0.0996   1260.7726    432.1448  40.55     1323.689     1.385     1.173     121.3774  20.2455        195
 5.32   0.0635   1196.3035    124.0277 -31.83     2075.084     1.615     1.537     121.2983  19.7574        196
 7.60   0.2981   1239.0065     47.7567  89.68     442.1513     0.678     0.429     121.3774  21.4361        197
 4.23   0.0466   1235.6456    304.5408   8.01     2828.852     1.679     1.548     121.3428  19.4210        198
 4.73   0.1084   1238.3787   1553.3990 -20.64     1216.284     1.407     1.319     121.3823  20.3374        199
 3.50   0.0086   1215.8608    512.8173  15.86     15341.26     2.065     1.996     121.3675  17.5853        200
 3.94   0.0228   1159.1243    236.1737  20.58     5787.113     1.869     1.717     121.3428  18.6438        201
 3.63   0.0102   1211.6676   1278.6577  85.09     12981.07     5.408     3.156     121.3428  17.7667        202
 5.24   0.0771   1208.9307    838.6002  76.46     1709.443     1.411     1.283     121.3823  19.9679        203
 4.72   0.0847   1203.1591    338.7107  15.07      1556.66     1.342     1.246     121.3378  20.0695        204
 7.22   0.0985   1214.0369   1429.0583  52.23     1337.904     1.380     1.343     121.3675  20.2339        205
 5.97   0.2608   1202.3199   1442.0844  19.93     505.2514     1.282     1.088     121.3428  21.2912        206
 6.89   0.3290   1181.9932    549.0134  64.50     400.6916     0.800     0.772     121.3972  21.5430        207
 5.79   0.3347   1154.6610   1352.9526   0.51      393.688     1.284     1.003     121.3428  21.5621        208
 3.54   0.0079   1131.2543    183.2998  -4.33     16653.74     2.127     2.056     121.3329  17.4962        209
 6.50   0.4184   1162.7140    887.9738  -1.41     314.9311     0.743     0.678     121.3329  21.8045        210
 3.50   0.0026   1166.4611   1299.5101  17.17     51365.87     2.317     2.279     121.3477  16.2733        211
 9.08   0.1112   1088.0667    639.9333 -45.00     1184.804     1.140     0.289      121.328  20.3659        212
 3.50   0.0042   1096.0112    778.0682  36.37     31635.44     2.197     2.013     121.3626  16.7996        213
 3.50   0.0137   1083.0713   1148.0192  -6.46      9588.37     1.932     1.885     121.3477  18.0956        214
 9.54   0.1415   1092.5060    467.5030  44.94     931.3062     0.506     0.494      121.328  20.6273        215
 3.50   0.0030   1041.5288    632.9138  37.90     43683.63     2.302     2.254     121.3576  16.4492        216
 5.29   0.0735   1073.2211   1218.8523 -30.23     1794.044     1.621     1.579     121.3922  19.9154        217
 5.73   0.0680   1031.7842    302.4635  64.95      1937.81     1.831     1.431     121.3576  19.8317        218
 3.50   0.0079   1011.1400    813.5790  27.52     16598.46     2.102     2.028     121.3675  17.4998        219
 3.50   0.0067   1027.0903   1379.8270  24.50     19618.12     2.110     2.047      121.323  17.3184        220
 5.92   0.4424   1001.3224   1273.7477   8.29     297.8992     1.106     0.970     121.3477  21.8648        221
 4.81   0.0494   1012.6555    344.5858  -7.73      2667.49     1.620     1.528     121.3972  19.4847        222
 4.56   0.0462   1002.9797    542.4612  11.33      2853.26     1.609     1.532     121.3725  19.4116        223
