#   1 KRON_RADIUS            Kron apertures in units of A or B                         
#   2 MAGERR_APER            RMS error vector for fixed aperture mag.                   [mag]
#   3 Y_IMAGE                Object position along y                                    [pixel]
#   4 X_IMAGE                Object position along x                                    [pixel]
#   5 THETA_IMAGE            Position angle (CCW/x)                                     [deg]
#   6 FLUX_APER              Flux vector within fixed circular aperture(s)              [count]
#   7 A_IMAGE                Profile RMS along major axis                               [pixel]
#   8 THRESHOLD              Detection threshold above background                       [count]
#   9 B_IMAGE                Profile RMS along minor axis                               [pixel]
#  10 FLUX_RADIUS            Fraction-of-light radii                                    [pixel]
#  11 FLUXERR_APER           RMS error vector for aperture flux(es)                     [count]
#  12 MAG_APER               Fixed aperture magnitude vector                            [mag]
#  13 NUMBER                 Running object number                                     
 4.48   0.0028     54.1134     63.6375   5.15      29774.8     4.168     17.51707     3.795      9.761     77.62167  16.8654          1
 4.18   0.0169     17.2518    984.8208 -88.85     5003.698     3.632     17.51707     1.613      6.612     77.64801  18.8018          2
 3.73   0.0210     18.7921     91.0527 -67.39     4010.374     1.546     17.51707     1.431      3.053     77.68313  19.0420          3
 3.50   0.0083     15.4424   1445.5559 -62.54     10209.61     1.650     17.51707     1.566      2.892     77.65679  18.0275          4
 5.77   0.1759     18.1645    384.1515  44.06     479.3566     0.761     17.51707     0.567      2.207     77.63923  21.3484          5
 4.27   0.0987     25.5739    366.8953 -14.68     854.2798     1.150     17.51707     0.962      2.791     77.60409  20.7210          6
 3.50   0.0018     60.5962   1078.2424  76.97     48042.26     1.998     17.51707     1.878      3.114     77.65679  16.3459          7
 7.73   0.3106     43.3143    915.3513 -43.40     271.3079     0.576     17.51707     0.333      2.295     77.59531  21.9663          8
 3.50   0.0018     80.9674    537.4247 -67.18     45766.45     1.917     17.51707     1.816      3.002     77.63045  16.3986          9
 3.50   0.0002    182.7543   1107.3114 -33.84     508733.1     5.320     17.51707     4.706      7.243     77.58652  13.7838         10
 4.26   0.0519     76.0034    127.7169  10.01     1624.313     1.188     17.51707     1.148      2.532     77.63045  20.0233         11
 3.50   0.0012    122.5943    788.9246 -61.36     67926.77     2.004     17.51707     1.876      3.076     77.67435  15.9699         12
 4.04   0.0351     97.4281     55.9913  22.71     2404.963     1.346     17.51707     1.270      2.893     77.63923  19.5972         13
 8.23   0.0868     90.8850    376.7019 -20.39     970.2072     0.956     17.51707     0.688      4.649     77.54256  20.5828         14
 3.50   0.0003    194.4246    317.8832 -61.43     291295.4     2.286     17.51707     2.051      3.063     77.62167  14.3892         15
 3.50   0.0022    163.1353   1468.1381 -62.55     38439.13     1.875     17.51707     1.794      3.024     77.59531  16.5881         16
 3.50   0.0096    171.1655    877.1136 -49.92     8761.659     1.630     17.51707     1.557      2.928     77.62167  18.1935         17
 4.79   0.1253    165.7308   1445.5076   4.02     672.4319     0.992     17.51707     0.930      2.640     77.58652  20.9809         18
 5.69   0.0544    172.4128    325.0309 -77.11     1551.371     1.272     17.51707     1.156      4.240     77.65679  20.0732         19
 4.93   0.1409    167.6038    104.1795 -53.71     598.3587     1.013     17.51707     0.798      2.673     77.62167  21.1076         20
 4.76   0.0031    235.9160    403.1274 -54.98     27362.15     4.971     17.51707     4.426     13.197     77.56894  16.9571         21
 4.98   0.0835    193.4423   1350.3160 -32.41     1008.994     1.126     17.51707     0.910      2.781     77.61288  20.5403         22
 5.44   0.0228    211.5265    827.6342  -7.65     3692.809     2.457     17.51707     1.586      7.060     77.61288  19.1316         23
 4.12   0.0476    207.4942    548.9372 -80.12     1771.241     1.310     17.51707     1.143      2.978     77.59531  19.9293         24
 7.25   0.2633    204.4811    250.5076  36.96     320.0689     0.500     17.51707     0.499      2.554     77.60409  21.7869         25
 6.64   0.0713    209.4116    349.7701  22.88     1183.004     1.196     17.51707     0.965      4.694     77.65679  20.3675         26
 3.50   0.0525    213.0077   1305.9434 -30.97     1605.664     1.201     17.51707     1.190      2.587     77.69191  20.0359         27
 8.44   0.1529    211.2228    684.6010 -71.57     551.4123     0.753     17.51707     0.451      3.350     77.62167  21.1963         28
 5.97   0.0264    230.9360    562.0312  11.84     3198.681     2.312     17.51707     2.091      7.876     77.63923  19.2876         29
 6.71   0.0271    229.8141    414.8990 -71.47     3115.002     1.710     17.51707     1.547      8.702     77.60409  19.3164         30
 4.37   0.0371    224.6008   1225.8378 -85.78     2272.966     1.311     17.51707     1.279      3.027     77.62167  19.6585         31
 4.83   0.1426    223.2310    774.5986 -29.44     591.0192     1.026     17.51707     0.798      2.483     77.61288  21.1210         32
 3.50   0.0008    260.5680    997.2263 -60.60       103018     2.037     17.51707     1.924      3.038     77.63045  15.5177         33
 9.13   0.0820    223.0016    345.4901 -88.29     1028.275     0.803     17.51707     0.500      4.297     77.59531  20.5197         34
 3.50   0.0010    266.6997     67.3946 -76.33     86987.32     1.982     17.51707     1.886      2.974     77.61288  15.7014         35
 6.52   0.0550    244.6537    112.8341  75.03     1534.486     1.395     17.51707     1.155      5.408     77.64801  20.0851         36
 5.17   0.0241    256.3477    612.7624 -34.58     3492.536     1.872     17.51707     1.547      5.472     77.63923  19.1921         37
 7.49   0.1145    251.4937    107.4909 -45.11     735.3542     0.506     17.51707     0.494      3.033     77.56014  20.8838         38
 8.17   0.1487    252.6854   1372.6636 -43.97     566.6565     0.570     17.51707     0.337      2.694     77.58652  21.1667         39
 3.50   0.0002    313.2004    439.2152 -61.04     356285.5     2.247     17.51707     2.086      3.076     77.61288  14.1705         40
 3.50   0.0041    288.3480   1486.2738 -54.17     20327.49     1.751     17.51707     1.674      2.944     77.57773  17.2798         41
 3.50   0.0196    282.7493   1522.1841 -61.33     4300.628     1.460     17.51707     1.360      2.653     77.66557  18.9662         42
 5.11   0.0473    290.6356    514.7411 -36.50      1782.93     1.462     17.51707     1.311      3.935     77.63923  19.9222         43
 3.50   0.0056    303.9778    201.5832 -66.85     15058.59     1.714     17.51707     1.615      2.877     77.62167  17.6055         44
 3.50   0.0014    319.4937    905.2718 -62.35     59746.63     1.956     17.51707     1.848      3.007     77.58652  16.1092         45
 4.02   0.0445    294.7511   1327.3948  47.22     1894.769     1.274     17.51707     1.263      2.699     77.68313  19.8561         46
 6.28   0.1366    294.3224   1475.1021  11.40      616.579     0.727     17.51707     0.658      2.845     77.56894  21.0750         47
 8.31   0.0854    297.8722   1413.8578 -46.31     987.0363     0.853     17.51707     0.671      5.119     77.59531  20.5642         48
 3.50   0.0003    352.2238    890.5839 -55.85     314860.4     2.209     17.51707     2.073      3.074     77.62167  14.3047         49
 3.50   0.0003    352.2397   1345.7283 -55.48     303679.2     2.185     17.51707     2.061      3.074     77.63045  14.3440         50
 6.53   0.1294    303.0704    563.5995 -17.06      651.843     1.007     17.51707     0.742      3.430     77.66557  21.0146         51
 3.50   0.0085    322.8800    697.1052 -48.65     9864.836     1.600     17.51707     1.557      2.838     77.56894  18.0648         52
 7.23   0.1002    322.3919    640.9913 -72.88     841.2004     1.533     17.51707     0.349      3.509     77.59531  20.7378         53
 4.85   0.0484    328.2270    595.3594  12.77     1743.307     1.342     17.51707     1.284      3.849     77.66557  19.9466         54
 3.88   0.0125    347.1299    866.8550 -43.34      6765.45     1.633     17.51707     1.498      3.052     77.59531  18.4743         55
 6.55   0.1869    332.9962     93.4646 -88.40     451.3123     0.778     17.51707     0.498      2.405     77.67435  21.4138         56
 5.92   0.2747    336.1976   1440.3890  71.88     306.8061     0.728     17.51707     0.454      1.849     77.60409  21.8328         57
 3.94   0.0154    356.6004    431.5988 -75.33     5487.081     1.788     17.51707     1.580      3.424     77.64801  18.7016         58
 4.14   0.0985    350.8954     54.4239  75.90     855.5018     1.126     17.51707     0.959      2.445     77.61288  20.7194         59
 3.50   0.0082    368.9802    760.8908 -58.40     10222.12     1.598     17.51707     1.559      2.813     77.61288  18.0261         60
 3.76   0.0220    368.2882    442.6587 -56.28     3821.536     1.435     17.51707     1.336      2.820     77.58652  19.0944         61
 3.62   0.0506    362.0505   1500.2076 -24.28     1666.186     1.284     17.51707     1.149      2.690     77.66557  19.9957         62
 5.05   0.2465    361.3106   1033.9282 -13.90     341.8743     0.739     17.51707     0.661      1.959     77.58652  21.7153         63
 3.50   0.0017    396.0200    231.2718 -61.09     50374.11     1.874     17.51707     1.819      2.951     77.67435  16.2945         64
 5.48   0.1584    373.7695    992.0414 -88.68     532.3836     0.894     17.51707     0.751      2.675     77.66557  21.2344         65
 3.50   0.0124    397.8937   1461.0099 -39.50      6809.48     1.563     17.51707     1.472      2.796     77.61288  18.4672         66
 3.50   0.0103    399.0078    354.3785 -71.51     8214.611     1.585     17.51707     1.493      2.816     77.62167  18.2635         67
 3.66   0.0520    394.5766   1088.5724 -29.99     1620.347     1.284     17.51707     1.233      2.679     77.63923  20.0260         68
 3.50   0.0038    416.4507    837.1747 -64.92     22210.45     1.798     17.51707     1.680      2.939     77.67435  17.1836         69
 3.50   0.0018    420.3988    433.1456 -58.39     46232.19     1.886     17.51707     1.783      2.969     77.68313  16.3876         70
 3.75   0.0208    425.0381    926.1504 -47.65     4058.241     1.483     17.51707     1.353      2.891     77.63923  19.0292         71
 3.50   0.0051    438.7664    251.9352 -45.10     16424.88     1.713     17.51707     1.632      2.891     77.63045  17.5112         72
 6.61   0.0959    421.7399    158.5126  -7.53     879.0531     1.013     17.51707     0.987      3.863     77.58652  20.6900         73
 3.50   0.0006    461.8574    807.3825 -54.53     142871.1     2.057     17.51707     1.941      3.011     77.63923  15.1626         74
 3.76   0.0745    433.8073   1421.8584  31.89     1133.041     1.177     17.51707     1.104      2.783     77.68313  20.4144         75
 8.40   0.1867    427.5076   1179.4756  48.21     451.2058     0.502     17.51707     0.497      2.592     77.57773  21.4141         76
 6.16   0.1584    434.9740    150.9762  35.97     532.3161     0.787     17.51707     0.769      3.175     77.64801  21.2346         77
 4.40   0.1567    440.6718    305.3953 -46.54     538.1517     0.991     17.51707     0.875      2.539     77.66557  21.2227         78
 3.73   0.0159    451.1180     21.1858 -35.06     5307.508     1.529     17.51707     1.416      2.927     77.64801  18.7378         79
 5.41   0.0199    468.5997    850.2263  23.11     4230.057     5.828     17.51707     1.566     12.886     77.61288  18.9841         80
 6.23   0.0968    446.1815    121.9023 -14.29     870.8081     1.080     17.51707     0.836      3.488     77.61288  20.7002         81
 3.57   0.0145    458.6487     34.3971 -57.41     5833.174     1.520     17.51707     1.448      2.786     77.68313  18.6352         82
 8.14   0.0959    448.2517    883.8757  -7.80     878.8682     1.041     17.51707     0.643      4.317     77.57773  20.6902         83
 3.80   0.0456    464.5070    468.4641 -52.99     1846.657     1.324     17.51707     1.266      3.033     77.60409  19.8840         84
 5.86   0.1876    461.8690   1096.1428  45.45     449.1108     0.823     17.51707     0.671      2.667     77.59531  21.4191         85
 3.98   0.0361    472.9391    734.7498 -68.45     2337.519     1.361     17.51707     1.217      2.769     77.61288  19.6281         86
 4.43   0.0540    472.1027    253.9982 -64.88     1561.954     1.241     17.51707     1.108      2.815     77.61288  20.0658         87
 3.50   0.0292    478.7898    922.8477 -20.02     2886.675     1.403     17.51707     1.353      2.712     77.66557  19.3990         88
 4.07   0.0834    478.8117   1276.7957 -50.21     1010.488     1.136     17.51707     1.024      2.646     77.59531  20.5387         89
 3.50   0.0710    485.0125   1070.3956 -46.82     1186.366     1.195     17.51707     1.127      2.502     77.59531  20.3645         90
 5.91   0.0394    496.9854     82.8541  55.90     2139.271     1.818     17.51707     1.496      5.964     77.66557  19.7243         91
 5.91   0.0406    496.5325   1187.0388 -13.62     2074.187     2.128     17.51707     1.330      6.030     77.63045  19.7579         92
 3.50   0.0070    513.2896   1302.2393 -42.36      11988.6     1.658     17.51707     1.592      2.898     77.59531  17.8531         93
 4.84   0.0056    533.8892    518.5785  30.84     15054.77     3.346     17.51707     2.728      8.544     77.62167  17.6058         94
 6.60   0.0678    505.0350    762.6558 -88.65     1243.969     1.252     17.51707     1.016      4.811     77.63923  20.3130         95
 4.63   0.1164    502.7391    863.4894 -40.17      723.966     0.963     17.51707     0.954      2.263     77.59531  20.9007         96
 6.18   0.2738    499.0000    365.9927   0.00      307.821     0.843     17.51707     0.289      1.856     77.59531  21.8293         97
 5.71   0.0347    516.2209   1461.1857  26.90     2432.219     2.828     17.51707     1.249      7.902     77.61288  19.5850         98
 5.94   0.1916    502.4906   1309.9664  -3.30     439.8543     0.785     17.51707     0.499      2.269     77.60409  21.4417         99
 4.97   0.0538    514.1891   1310.0686  12.56      1568.47     1.453     17.51707     1.166      3.481     77.67435  20.0613        100
 7.49   0.1031    510.6530    165.5925   6.25     818.2049     1.008     17.51707     0.636      4.696     77.69191  20.7678        101
 4.21   0.1264    514.4960   1179.0830 -43.70     666.4157     1.130     17.51707     0.881      2.345     77.55135  20.9906        102
 6.59   0.1681    520.1537    641.3141 -60.97     501.3115     0.857     17.51707     0.594      3.480     77.61288  21.2997        103
 4.14   0.0507    541.0002    999.6945 -62.31     1663.399     1.250     17.51707     1.160      2.783     77.61288  19.9975        104
 3.50   0.0003    588.6879   1315.8539 -55.49     326388.5     2.187     17.51707     2.068      3.069     77.58652  14.2657        105
 3.68   0.0363    559.7887   1041.5302 -54.92     2323.895     1.373     17.51707     1.305      2.851     77.66557  19.6345        106
 3.60   0.0114    573.4073   1242.7402 -36.74     7424.896     1.543     17.51707     1.528      2.886     77.68313  18.3733        107
 3.50   0.0087    581.4571    144.8192 -63.56     9708.628     1.639     17.51707     1.537      2.856     77.63923  18.0821        108
 5.40   0.0545    571.8488     45.7987  65.71      1547.76     1.497     17.51707     1.163      4.108     77.68313  20.0757        109
 7.49   0.2139    565.9841    139.5040 -87.66     394.1744     0.791     17.51707     0.499      2.949     77.62167  21.5608        110
 5.53   0.0550    572.0419   1447.5493  18.02     1531.854     1.733     17.51707     1.229      4.887     77.64801  20.0870        111
 3.50   0.0087    583.0026    319.0012 -42.00     9747.356     1.607     17.51707     1.563      2.853     77.64801  18.0778        112
 3.50   0.0002    631.9539    483.1635 -57.26     403469.7     2.648     17.51707     2.496      3.713     77.65679  14.0355        113
 5.70   0.0599    575.7169   1336.6877 -52.10     1407.121     1.150     17.51707     1.091      3.916     77.57773  20.1792        114
 5.48   0.0175    597.8709    782.6802 -74.06      4804.17     2.429     17.51707     2.215      7.816     77.58652  18.8460        115
 8.26   0.1798    577.3349   1001.3214 -45.62     468.5094     0.573     17.51707     0.336      2.602     77.57773  21.3732        116
 5.50   0.1263    585.4738     75.7457 -67.57     667.0861     0.965     17.51707     0.954      3.283     77.59531  20.9895        117
 5.11   0.0870   1000.6995   1273.7892 -23.88     968.6085     1.129     17.51707     1.019      3.190     77.59531  20.5846        118
 6.74   0.0881   1598.4836    654.9836 -35.24     783.2465     1.182     17.51707     0.755      4.030     63.51396  20.8153        119
 6.67   0.1018   1595.9614    374.0274  41.76     768.6764     0.803     17.51707     0.781      3.395     72.05457  20.8356        120
 4.97   0.0492   1030.9441    302.6436  65.88      1712.28     1.852     17.51707     1.356      4.645     77.62167  19.9661        121
 3.50   0.0028    985.6684    558.4529 -53.00     29725.73     1.772     17.51707     1.703      2.874     77.59531  16.8672        122
 5.84   0.0614    987.3660    453.8745 -69.95     1371.911     1.342     17.51707     1.151      4.509     77.61288  20.2067        123
 5.99   0.0844    981.6799    797.8624 -17.31     997.9431     1.182     17.51707     0.957      3.930     77.57773  20.5522        124
 6.62   0.1828    979.0314    452.5188  89.17     461.1571     0.783     17.51707     0.500      2.921     77.62167  21.3904        125
 6.68   0.2559    965.8215    416.1882 -42.86     329.4143     0.760     17.51707     0.564      2.524     77.62167  21.7556        126
 7.04   0.1067    952.0219    654.1979   4.29     790.2908     0.935     17.51707     0.751      3.714     77.63045  20.8055        127
 6.46   0.3868    948.6243    445.2148 -17.64     217.9076     0.743     17.51707     0.450      2.172     77.62167  22.2043        128
 4.52   0.0412    939.9567   1066.9950 -68.97     2047.372     1.243     17.51707     1.183      2.860     77.65679  19.7720        129
 7.30   0.1398    939.0000    516.0090   0.00     602.8686     0.850     17.51707     0.289      2.473     77.59531  21.0994        130
 3.50   0.0055    930.5116   1178.4536 -45.18     15345.19     1.683     17.51707     1.645      2.919     77.58652  17.5851        131
 4.77   0.0658    929.1415   1322.3268  77.80     1281.026     1.175     17.51707     1.037      3.060     77.59531  20.2811        132
 5.03   0.0835    913.6597    838.4653 -71.80     1009.764     1.086     17.51707     0.994      3.127     77.60409  20.5394        133
 6.17   0.1422    913.1230   1000.8743  43.79     592.5603     0.820     17.51707     0.671      2.880     77.58652  21.1182        134
 8.68   0.1483    905.6592   1315.3329  45.32      568.419     0.580     17.51707     0.332      2.981     77.60409  21.1633        135
 3.50   0.0129    901.2381    302.7928 -69.84     6537.363     1.533     17.51707     1.467      2.748     77.63923  18.5115        136
 3.50   0.0003    882.8272    183.6641 -39.56     315976.6     3.801     17.51707     3.437      5.482     77.63923  14.3009        137
 5.65   0.0596    897.0488    538.2656   9.28     1414.014     1.371     17.51707     1.213      4.512     77.61288  20.1739        138
 7.63   0.2042    894.9872   1425.7455 -89.31     413.1109     0.680     17.51707     0.436      2.518     77.66557  21.5098        139
 4.91   0.0205    880.3037    224.4290  89.77     4116.995     6.075     17.51707     1.576     11.674     77.58652  19.0135        140
 7.12   0.1253    889.8623    325.2966  21.97     672.2507     0.959     17.51707     0.675      3.402     77.57773  20.9812        141
 3.50   0.0007    881.0632   1592.5182 -59.42     114653.5     1.984     17.51707     1.890      2.951     77.57773  15.4015        142
 4.97   0.0921    886.4539   1500.2401 -30.10     914.8493     1.097     17.51707     0.931      3.201     77.62167  20.6466        143
 7.16   0.0936    886.5475   1304.7545  58.27     900.8646     1.054     17.51707     0.816      4.124     77.63045  20.6634        144
 6.70   0.0644    878.9013   1177.0784  56.73     1307.212     1.248     17.51707     1.121      5.280     77.56894  20.2591        145
 5.94   0.1235    878.3253    960.7850 -76.58     683.4097     0.962     17.51707     0.858      3.263     77.69191  20.9633        146
 4.98   0.0285    870.2983   1103.6595 -66.59     2957.125     1.675     17.51707     1.512      4.398     77.56894  19.3728        147
 3.50   0.0003    860.0699   1224.5084 -53.73     294355.8     2.187     17.51707     2.076      3.047     77.58652  14.3778        148
 6.06   0.0747    868.7755    939.6843  20.35     1129.304     1.410     17.51707     1.024      4.389     77.63045  20.4180        149
 6.07   0.0828    860.3856   1157.3900 -40.75     1017.822     1.043     17.51707     0.950      3.689     77.59531  20.5308        150
 6.11   0.1189    859.2457   1339.6561 -65.63      709.071     1.116     17.51707     0.876      3.674     77.62167  20.9233        151
 7.31   0.0724    845.3869   1206.3982 -18.93     1164.432     0.968     17.51707     0.807      5.209     77.61288  20.3847        152
 6.09   0.1226    845.9082   1063.6815 -35.52     687.3856     0.984     17.51707     0.825      3.513     77.60409  20.9570        153
 5.87   0.0607    844.0679   1106.0122  39.78     1388.778     1.318     17.51707     1.119      4.351     77.67435  20.1934        154
 6.09   0.0374    838.6267   1246.9838 -31.10     2256.851     1.658     17.51707     1.264      5.942     77.63923  19.6662        155
 3.71   0.0719    837.4371    298.7768 -36.90     1172.868     1.200     17.51707     1.045      2.504     77.63923  20.3769        156
 6.20   0.1876    836.5046    818.9788   0.87     449.4019     0.783     17.51707     0.500      2.280     77.61288  21.4184        157
 3.59   0.0126    823.7392    654.3417 -45.81     6669.848     1.572     17.51707     1.460      2.833     77.59531  18.4897        158
 3.50   0.0138    803.8616   1378.5885 -31.65     6119.693     1.567     17.51707     1.472      2.860     77.67435  18.5832        159
 3.50   0.0048    799.2980    695.5693 -87.07     17476.56     2.425     17.51707     1.661      3.886     77.56894  17.4439        160
 3.78   0.0298    801.5427     41.1259 -38.83     2827.479     1.372     17.51707     1.236      2.691     77.59531  19.4215        161
 4.87   0.0357    775.0469   1427.3523  86.49     2364.843     2.119     17.51707     1.431      5.358     77.66557  19.6155        162
 3.60   0.0668    767.6336    391.7465 -80.70     1261.756     1.255     17.51707     1.084      2.619     77.65679  20.2976        163
 4.58   0.0556    743.5869    556.2189 -66.70     1515.199     1.209     17.51707     1.118      2.801     77.61288  20.0988        164
 6.32   0.1293    739.0012   1157.8258  -3.27     652.0655     0.894     17.51707     0.758      3.525     77.62167  21.0143        165
 5.82   0.1032    736.8511    649.5665 -14.51     817.1395     0.994     17.51707     0.869      2.920     77.65679  20.7693        166
 3.50   0.0002    724.9310    404.7141 -49.70     400175.9     2.279     17.51707     2.107      3.053     77.56894  14.0444        167
 3.50   0.0012    727.4244    848.3069 -60.26     68826.46     1.991     17.51707     1.881      3.012     77.60409  15.9556        168
 4.68   0.0670    728.2408   1178.1235 -64.92     1257.601     1.183     17.51707     1.099      2.912     77.61288  20.3011        169
 6.22   0.2415    721.8533   1394.8275  45.76     349.2521     0.759     17.51707     0.569      2.399     77.65679  21.6922        170
 4.40   0.0606    716.7385    808.1855 -51.40      1392.29     1.254     17.51707     1.118      2.762     77.63045  20.1907        171
 5.04   0.0509    709.7180   1163.7717 -42.30     1656.268     1.222     17.51707     1.181      3.015     77.63045  20.0022        172
 5.04   0.0532    705.0179   1339.0034 -66.79     1583.351     1.504     17.51707     1.217      3.940     77.60409  20.0511        173
 4.16   0.0316    703.4415    952.3286  85.07     2671.476     1.358     17.51707     1.313      3.030     77.62167  19.4831        174
 8.00   0.1330    699.6871    582.8306 -12.46     633.8087     1.081     17.51707     0.410      3.589     77.62167  21.0451        175
 6.81   0.0911    692.6078   1213.5952  68.56     924.9161     0.928     17.51707     0.897      4.627     77.61288  20.6347        176
 6.59   0.1000    687.8055   1213.6978 -69.86     842.9316     1.138     17.51707     0.653      4.807     77.60409  20.7355        177
 4.17   0.0419    686.4279    644.1636 -58.42      2013.82     1.287     17.51707     1.228      2.825     77.64801  19.7899        178
 8.11   0.0413    684.0463    472.1976  68.79     2040.084     1.608     17.51707     1.284      7.889     77.67435  19.7759        179
 5.89   0.0457    682.3682    543.4629 -64.24     1843.732     1.527     17.51707     1.238      5.237     77.63045  19.8858        180
 4.90   0.1515    655.3740    870.8969  65.73     556.0453     0.872     17.51707     0.695      2.354     77.59531  21.1872        181
 3.50   0.0013    649.1219   1464.3120 -56.93     66893.77     1.922     17.51707     1.832      3.001     77.56014  15.9865        182
 5.39   0.3687    647.0031    652.7579  89.84     228.6935     0.672     17.51707     0.428      1.700     77.64801  22.1519        183
 3.83   0.0047   1553.5547    682.1770 -28.59     17851.27     4.005     17.51707     3.353      8.500     77.64801  17.4208        184
 3.50   0.0081    640.5757    536.7169 -51.86     10457.18     1.630     17.51707     1.566      2.876     77.63045  18.0015        185
 5.20   0.1184    631.6423    805.9069  78.63     711.3749     0.971     17.51707     0.747      2.776     77.55135  20.9198        186
 4.43   0.0876    624.2548   1581.2894 -38.12     962.3344     1.097     17.51707     0.970      2.687     77.58652  20.5917        187
 7.44   0.1258    618.6962   1150.6582 -43.15     669.4286     0.568     17.51707     0.338      2.578     77.56894  20.9857        188
 4.61   0.0758    606.2943    586.1494 -46.53      1111.94     1.159     17.51707     1.006      2.972     77.56894  20.4348        189
 3.87   0.0225   1542.7234    135.0943 -43.48     3736.597     1.418     17.51707     1.362      2.778     77.57773  19.1188        190
 3.63   0.0355   1543.4998    654.6281 -41.70     2371.069     1.341     17.51707     1.250      2.631     77.57773  19.6126        191
 3.50   0.0951   1562.1459    861.5939  54.85     886.9732     1.093     17.51707     1.006      2.356     77.70068  20.6802        192
 5.88   0.0767   1060.7449    726.9616   2.25     1098.927     1.204     17.51707     1.069      4.040     77.63923  20.4476        193
 3.50   0.0014   1564.5687    304.2829 -41.02     60319.11     1.866     17.51707     1.791      2.875     77.62167  16.0989        194
 4.47   0.1276   1546.9893    863.4899  89.23     660.6069     1.146     17.51707     0.950      2.611     77.61288  21.0001        195
 4.61   0.0668   1585.7867   1108.7452 -49.89     1262.491     1.130     17.51707     1.070      2.751     77.65679  20.2969        196
 3.50   0.0014   1558.8730    487.7052 -41.98     59873.12     1.858     17.51707     1.786      2.858     77.58652  16.1069        197
 5.22   0.0639   1566.8202    784.5922 -81.87      1319.76     1.331     17.51707     1.063      3.773     77.61288  20.2488        198
 4.35   0.0355   1567.4860     22.0818 -36.28     2374.201     1.403     17.51707     1.204      2.998     77.57773  19.6112        199
 3.99   0.0485   1571.3545     92.6652 -77.23     1736.421     1.279     17.51707     1.204      2.807     77.62167  19.9509        200
 5.56   0.1790   1551.8256   1221.8483 -44.57     471.3806     0.806     17.51707     0.675      2.758     77.67435  21.3666        201
 9.25   0.1294   1532.6860    415.6718 -44.29     650.7766     0.567     17.51707     0.339      3.219     77.56014  21.0164        202
 4.91   0.1027   1504.8041    723.4289  -9.40     821.1393     0.990     17.51707     0.921      2.305     77.63045  20.7640        203
 3.50   0.0026   1508.0364    269.3850 -53.27     32596.85     1.766     17.51707     1.690      2.844     77.65679  16.7671        204
 5.99   0.2397   1066.4935   1597.0056   0.04     311.4423     0.778     17.51707     0.500      2.190     68.74193  21.8166        205
 3.50   0.0025   1080.7572    512.1439 -52.62     33721.38     1.763     17.51707     1.707      2.857     77.62167  16.7302        206
 6.93   0.1398   1515.2277    483.8026 -43.92      602.994     0.757     17.51707     0.562      2.961     77.62167  21.0992        207
 8.20   0.1617   1520.1885     84.4018  71.46     521.2504     0.768     17.51707     0.448      3.677     77.61288  21.2574        208
 3.56   0.0102   1515.7189    392.7199 -52.91     8278.155     1.564     17.51707     1.513      2.807     77.58652  18.2552        209
 7.42   0.1475   1084.4899     42.9825   0.45     571.3218     0.789     17.51707     0.500      3.001     77.62167  21.1578        210
 5.27   0.1650   1080.0181    330.0148 -51.63     510.9144     0.792     17.51707     0.768      2.283     77.63045  21.2791        211
 6.65   0.1275   1064.0062      7.2822  89.36     655.2701     0.732     17.51707     0.681      3.097     76.95113  21.0089        212
 8.02   0.0960   1091.2765    468.4171 -81.35     879.0482     1.030     17.51707     0.474      4.124     77.66557  20.6900        213
 3.50   0.0085   1082.6000   1148.1802 -54.73      9919.24     1.626     17.51707     1.567      2.870     77.63045  18.0588        214
 5.49   0.1140   1074.0872      6.6361 -18.53     722.6042     1.002     17.51707     0.731      2.816     75.82639  20.9027        215
 3.50   0.0028   1095.7400    778.1583 -51.72      30565.6     1.804     17.51707     1.704      2.881     77.63045  16.8369        216
 3.50   0.0078   1105.2926    751.8443 -44.25     10780.26     1.646     17.51707     1.529      2.825     77.56894  17.9684        217
 9.40   0.1153   1105.5251    678.5211 -42.64     731.2289     0.501     17.51707     0.498      3.004     77.60409  20.8899        218
 7.14   0.0567   1111.6593    479.1340  -2.36     1487.109     1.539     17.51707     0.952      6.194     77.58652  20.1191        219
 5.57   0.1171   1407.1957    329.7682  43.72     720.4196     0.900     17.51707     0.848      2.805     77.64801  20.9060        220
 3.57   0.0118   1108.2091    427.9680 -42.66     7163.717     1.584     17.51707     1.498      2.869     77.63045  18.4122        221
 7.39   0.1247   1433.0000    340.9669   0.00     675.8774     0.850     17.51707     0.289      2.747     77.61288  20.9753        222
 5.52   0.0373   1120.8257    329.6738  62.77     2263.067     1.877     17.51707     1.353      5.378     77.63923  19.6633        223
 6.89   0.0985   1114.8954    674.3411 -14.10     855.1774     0.992     17.51707     0.748      4.401     77.57773  20.7199        224
 3.50   0.0002   1367.0531   1159.7738 -44.74     338938.5     3.165     17.51707     2.934      4.516     77.66557  14.2247        225
 6.27   0.1579   1439.3125   1271.0223   0.53     533.9625     0.729     17.51707     0.682      2.683     77.63045  21.2312        226
 5.92   0.0116   1360.3600   1135.1073  68.94     7234.144     5.566     17.51707     4.135     18.875     77.55135  18.4015        227
 4.23   0.0325   1391.3807    713.3365 -25.20     2595.561     1.296     17.51707     1.259      2.686     77.64801  19.5144        228
 3.50   0.0045   1420.1736   1126.3650 -62.65     18710.46     1.840     17.51707     1.658      3.055     77.64801  17.3698        229
 3.50   0.0340   1440.6804    619.1695  -2.51     2480.276     1.353     17.51707     1.233      2.432     77.62167  19.5637        230
 3.70   0.0318   1409.0814    308.3490 -30.10     2649.948     1.390     17.51707     1.300      2.770     77.58652  19.4919        231
 3.50   0.0006   1435.2297   1090.4370 -52.54     145310.8     2.005     17.51707     1.910      2.924     77.63045  15.1443        232
 3.78   0.0230   1436.1256    224.7913 -44.19     3659.504     1.449     17.51707     1.325      2.837     77.65679  19.1414        233
 4.63   0.0470   1416.2798   1386.6040  -8.27     1794.196     1.264     17.51707     1.188      3.204     77.64801  19.9153        234
 3.50   0.0010   1394.2532    114.4830 -42.04     81434.79     1.923     17.51707     1.822      2.896     77.57773  15.7730        235
 5.97   0.1173   1412.3298    350.1026  28.72     718.5722     0.926     17.51707     0.840      3.081     77.59531  20.9088        236
 5.51   0.0961   1401.4933   1031.4747  45.37     876.8283     1.098     17.51707     0.860      2.897     77.57773  20.6927        237
 3.77   0.0109   1389.6044   1428.5172 -23.66     7705.291     1.567     17.51707     1.485      2.883     77.63045  18.3330        238
 5.55   0.1099   1130.0150    547.4307  -4.09     767.6403     1.011     17.51707     0.784      3.213     77.65679  20.8371        239
 6.76   0.2359   1389.5151    806.5027 -43.20     356.9799     0.502     17.51707     0.498      2.075     77.54256  21.6684        240
 3.79   0.0512   1393.1326   1038.7178 -23.59     1645.226     1.230     17.51707     1.179      2.571     77.58652  20.0094        241
 3.56   0.0094   1373.4583   1018.8973 -16.71      8985.06     1.597     17.51707     1.522      2.866     77.56894  18.1662        242
 6.09   0.0715   1154.5359   1353.0892 -36.47     1178.788     1.154     17.51707     1.060      4.092     77.59531  20.3714        243
 4.93   0.0542   1152.1134     99.3618  11.04      1555.09     1.255     17.51707     1.106      2.985     77.62167  20.0706        244
 3.50   0.0051   1130.7471    183.5740 -50.02     16549.22     1.683     17.51707     1.612      2.842     77.66557  17.5031        245
 3.50   0.0004   1299.2574    724.8826 -50.74     191004.2     2.051     17.51707     1.934      2.946     77.59531  14.8474        246
 4.10   0.0286   1308.3727    669.6420 -20.29     2949.989     1.375     17.51707     1.295      2.815     77.66557  19.3754        247
 5.43   0.1100   1130.9506    219.3301 -19.16     765.7769     1.025     17.51707     0.747      2.927     77.58652  20.8397        248
 6.86   0.0611   1331.2412   1139.4500 -21.83     1380.209     1.264     17.51707     1.157      5.757     77.64801  20.2001        249
 5.90   0.1264   1331.0811    386.8084   2.51     666.8611     0.911     17.51707     0.748      3.058     77.62167  20.9899        250
 5.48   0.0735   1333.5493    107.4753 -39.90     1145.587     1.033     17.51707     0.983      3.206     77.57773  20.4024        251
 3.50   0.0028   1320.9171    659.9872 -58.06     30433.13     1.797     17.51707     1.696      2.857     77.63923  16.8416        252
 4.37   0.0214   1330.7756    655.8713 -55.06     3932.603     1.576     17.51707     1.447      3.388     77.64801  19.0633        253
 8.15   0.1404   1182.4060    176.2184  18.50      600.414     0.760     17.51707     0.451      3.241     77.61288  21.1039        254
 3.58   0.0115   1292.2377    762.0358 -22.11     7315.379     1.917     17.51707     1.501      3.241     77.68313  18.3894        255
 5.49   0.0285   1308.5463   1036.2263 -40.27     2957.923     2.129     17.51707     1.533      5.738     77.66557  19.3725        256
 5.88   0.0597   1260.2944    432.6155  62.72     1411.571     1.508     17.51707     1.308      4.731     77.62167  20.1757        257
 6.15   0.1007   1320.0809    264.0743 -45.06     836.2988     1.039     17.51707     0.742      3.587     77.57773  20.7441        258
 4.18   0.0074   1273.5790    610.0105 -57.57     11379.11     3.482     17.51707     2.190      6.734     77.61288  17.9097        259
 5.34   0.0555   1294.4099    742.2711  79.94     1519.684     1.254     17.51707     1.076      3.967     77.67435  20.0956        260
 5.46   0.1144   1305.5432    892.7346  80.28     736.5674     0.968     17.51707     0.936      3.336     77.61288  20.8820        261
 4.47   0.0956   1293.7827    412.7381 -27.82     881.7144     1.048     17.51707     1.024      2.611     77.63045  20.6867        262
 7.48   0.1912   1300.3140     53.6728  44.34     440.4909     0.566     17.51707     0.339      2.154     77.56894  21.4402        263
 3.66   0.0251   1266.2446    807.8480 -52.36     3356.617     1.423     17.51707     1.348      2.748     77.64801  19.2352        264
 4.11   0.0190   1278.9448   1331.4224  -5.75     4444.789     1.453     17.51707     1.384      2.936     77.65679  18.9304        265
 4.04   0.0282   1235.1608    304.8517 -33.72     2995.124     1.387     17.51707     1.347      2.925     77.63923  19.3590        266
 4.72   0.0448   1238.0076   1553.4736  -2.23     1882.856     1.273     17.51707     1.137      3.460     77.65679  19.8630        267
 6.80   0.0838   1230.5109    599.4536  46.46     1005.273     1.141     17.51707     0.859      4.633     77.57773  20.5443        268
 3.50   0.0001   1222.2365    995.1906 -28.81     615329.3     5.814     17.51707     4.848      7.354     77.63923  13.5772        269
 5.60   0.2468   1262.9789    855.0262   0.79     341.5532     0.627     17.51707     0.595      1.961     77.63045  21.7164        270
 7.74   0.1139   1238.4921     48.0088   1.15     740.1118     0.791     17.51707     0.500      3.088     77.61288  20.8768        271
 4.86   0.0138   1173.4719    758.0511 -67.81     6117.549     3.111     17.51707     2.780      7.996     77.57773  18.5836        272
 3.87   0.0085   1219.6803   1194.9224 -40.36     9857.153     1.666     17.51707     1.553      3.026     77.60409  18.0656        273
 4.72   0.0776   1243.3199    672.5645 -88.30     1086.507     1.161     17.51707     0.982      2.909     77.61288  20.4599        274
 4.38   0.0085   1211.4198   1278.8792  87.30     9880.702     5.068     17.51707     3.031     10.065     77.64801  18.0630        275
 8.00   0.1611   1183.5067    673.4812 -47.27     523.1559     0.502     17.51707     0.498      2.957     77.58652  21.2534        276
 6.40   0.1437   1229.3041   1153.9636  -4.11     586.2701     0.737     17.51707     0.670      2.697     77.56014  21.1298        277
 4.78   0.1970   1181.9341    549.0421 -45.62     427.8408     0.806     17.51707     0.764      2.455     77.62167  21.4718        278
 5.73   0.0705   1201.9554   1442.0054 -84.11     1196.742     1.217     17.51707     1.154      3.929     77.66557  20.3550        279
 5.91   0.0447   1203.9260   1075.5579  45.10     1884.955     1.479     17.51707     1.293      5.188     77.61288  19.8617        280
 3.50   0.0056   1215.4259    513.0239 -37.52     15000.31     1.654     17.51707     1.586      2.814     77.64801  17.6097        281
 7.22   0.0511   1213.3268   1429.7927 -24.55     1651.541     1.465     17.51707     1.209      6.386     77.66557  20.0053        282
 4.21   0.0499   1202.6418    339.0746  77.11     1687.911     1.268     17.51707     1.209      2.882     77.61288  19.9816        283
 7.30   0.0749   1066.0326   1562.9829 -76.11      1125.23     1.307     17.51707     0.727      5.627     77.64801  20.4219        284
 3.86   0.0519   1208.4716    838.8924 -80.42     1624.248     1.259     17.51707     1.153      2.619     77.57773  20.0234        285
 6.01   0.0419   1195.8903    124.2704 -84.05     2009.523     1.597     17.51707     1.374      5.838     77.57773  19.7923        286
 7.95   0.2356   1134.5172    607.4781 -45.70     357.6294     0.503     17.51707     0.496      3.020     77.58652  21.6664        287
 7.02   0.1221   1162.6606    887.9097 -67.27     690.2829     0.931     17.51707     0.697      3.965     77.59531  20.9524        288
 3.50   0.0017   1165.9778   1299.8185 -65.27     50960.91     1.848     17.51707     1.801      2.934     77.63923  16.2819        289
 3.50   0.0027   1139.3281    148.1158 -40.99     31649.82     1.797     17.51707     1.710      2.889     77.56894  16.7991        290
 3.67   0.0142   1158.6926    236.4519 -38.21     5944.739     1.536     17.51707     1.437      2.794     77.58652  18.6147        291
 3.50   0.0003   1152.4358    693.8477 -42.55     291774.7     3.254     17.51707     3.035      4.723     77.64801  14.3874        292
 6.93   0.1668   1095.0680   1136.4851 -87.59     505.0056     0.786     17.51707     0.499      2.537     77.58652  21.2918        293
 5.52   0.0805   1096.1521   1526.4434 -72.13     1046.879     1.142     17.51707     0.940      3.341     77.64801  20.5003        294
 3.58   0.0263   1090.0726    642.4016 -41.99     3206.304     1.429     17.51707     1.299      2.741     77.66557  19.2850        295
 3.50   0.0099   1039.4980    525.3729 -50.61     8541.786     1.569     17.51707     1.505      2.763     77.58652  18.2211        296
 5.84   0.0434   1072.7308   1219.1278 -71.47     1941.368     1.521     17.51707     1.315      5.278     77.56014  19.8297        297
 3.50   0.0002   1024.3788     50.2018 -46.86     475285.8     2.202     17.51707     2.067      2.959     77.62167  13.8576        298
 3.50   0.0049   1010.6035    813.6436 -46.35      17090.6     1.685     17.51707     1.634      2.870     77.64801  17.4681        299
 3.50   0.0020   1041.0494    633.0492 -48.72     43034.77     1.824     17.51707     1.752      2.867     77.66557  16.4655        300
 3.50   0.0043   1026.5879   1379.9607 -52.83     19808.92     1.752     17.51707     1.684      2.915     77.64801  17.3078        301
 3.55   0.0353   1011.9902    344.6391 -63.24     2387.034     1.356     17.51707     1.213      2.683     77.63923  19.6054        302
 4.13   0.0723   1002.4109   1555.3337 -77.98     1167.101     1.188     17.51707     1.018      2.760     77.66557  20.3822        303
 4.01   0.0295   1002.5194    542.4577 -52.56     2853.615     1.346     17.51707     1.273      2.800     77.59531  19.4115        304
